##TITLE= 
##JCAMP-DX= 5.00 $$Spinapi version 20130917_x86_64
##DATA TYPE= NMR FID
##DATA CLASS= NTUPLES
##ORIGIN=
##OWNER=
##.OBSERVE FREQUENCY=21.150000
##.OBSERVE NUCLEUS=
##.DELAY= (0,0)
##.ACQUISITION MODE= SIMULTANEOUS
##.DIGITISER RES=14
##SPECTROMETER/DATA SYSTEM= SpinCore Technologies, Inc.  Radio Processor
##NTUPLES= NMR FID
##VAR_NAME=	TIME,		FID/REAL,	FID/IMAG,	PAGE NUMBER
##SYMBOL=	X,		R,		I,		N
##VAR_TYPE=	INDEPENDENT,	DEPENDENT,	DEPENDENT,	PAGE
##VAR_FORM=	AFFN,		AFFN,		AFFN,		AFFN
##VAR_DIM=	8192,		8192,		8192,		2
##UNITS=	SECONDS,	ARBITRARY UNITS,ARBITRARY UNITS,
##FIRST=	0.0,		1976105,		-16451090,		1
##LAST=	 0.081920,		38877,		-92698,		2
##MIN=     0.0,        -11413979,     -16731677,     1
##MAX=      0.081920,        2892995,     6082757,     1
##FACTOR=	1.0001E+001,		1,		1,		1
##PAGE=		N=1
##DATA TABLE=	(X++(R..R)), XYDATA $$Real data points	
0 1976105 1889275 1781382 1630259 1480543 1322645 
6 1210655 1021498 912540 869888 645710 427735 
12 250866 115549 -57110 -216191 -254465 -460253 
18 -531458 -675051 -840992 -1000527 -1148836 -1283706 
24 -1435870 -1637726 -1740590 -2016011 -2135383 -2143636 
30 -2366984 -2408626 -2461835 -2700131 -2847654 -2954354 
36 -3145787 -3340138 -3439295 -3593037 -3702088 -3793512 
42 -3989349 -4114297 -4279169 -4294298 -4354430 -4520963 
48 -4757531 -4895245 -4956431 -5097954 -5283492 -5379200 
54 -5419140 -5524114 -5723046 -5716159 -5882175 -6025109 
60 -6155023 -6270978 -6400220 -6453372 -6618604 -6758800 
66 -6806340 -6921499 -7057628 -7128356 -7229170 -7305277 
72 -7350258 -7546507 -7576547 -7780029 -7839668 -7918913 
78 -7995053 -7998816 -8091526 -8308842 -8344358 -8450809 
84 -8456242 -8575493 -8683411 -8754569 -8804429 -8886658 
90 -9019762 -9050925 -9086888 -9195400 -9259753 -9280921 
96 -9445360 -9482434 -9530592 -9512574 -9579329 -9677816 
102 -9884761 -9810770 -9906801 -9988199 -10018743 -10013891 
108 -10067347 -10123823 -10208120 -10201554 -10293788 -10392442 
114 -10374416 -10498146 -10448691 -10445283 -10521567 -10546245 
120 -10710157 -10575828 -10678553 -10697225 -10772215 -10849981 
126 -10855856 -10840157 -10925629 -10893053 -10906028 -10937628 
132 -10958609 -10958056 -11082487 -11043013 -11145149 -11134320 
138 -11174438 -11203913 -11197315 -11162947 -11245290 -11237551 
144 -11188494 -11352438 -11191987 -11233189 -11255713 -11306198 
150 -11309770 -11368889 -11413979 -11348791 -11386595 -11361510 
156 -11396080 -11335608 -11338198 -11311685 -11395712 -11265536 
162 -11244713 -11358806 -11368278 -11257149 -11338772 -11335546 
168 -11312825 -11375188 -11369414 -11395918 -11319095 -11323297 
174 -11297624 -11212490 -11266035 -11293001 -11197318 -11248322 
180 -11310347 -11200148 -11154192 -11144373 -11097513 -11161352 
186 -11090222 -11068309 -11072497 -11047458 -11052406 -10967074 
192 -11030246 -10980274 -10984779 -10939355 -10896556 -10891730 
198 -10893504 -10844647 -10824453 -10850706 -10759516 -10811610 
204 -10779418 -10643779 -10677579 -10610776 -10656589 -10603093 
210 -10569369 -10633172 -10494702 -10498299 -10441988 -10425963 
216 -10340803 -10279766 -10328791 -10194850 -10185211 -10190792 
222 -10163259 -10122748 -10107700 -10049604 -9960515 -9949822 
228 -9939692 -10024654 -9851594 -9745822 -9776192 -9819421 
234 -9632186 -9685894 -9588255 -9596964 -9597615 -9423132 
240 -9440474 -9422299 -9399913 -9336052 -9284364 -9206185 
246 -9235018 -9041390 -9146589 -9061138 -9076705 -8973107 
252 -8969033 -8880661 -8828694 -8834972 -8654209 -8733861 
258 -8643651 -8484030 -8451270 -8462973 -8427089 -8389378 
264 -8314520 -8232634 -8189619 -8087043 -8070299 -7960198 
270 -8011013 -7906275 -7835332 -7816443 -7851386 -7865513 
276 -7733539 -7664815 -7558022 -7532509 -7460752 -7435049 
282 -7341919 -7303781 -7268611 -7129886 -7147659 -7020269 
288 -6892777 -7016075 -6874334 -6932297 -6780142 -6787618 
294 -6613736 -6653717 -6552225 -6549330 -6439885 -6353597 
300 -6322882 -6254141 -6158246 -6211784 -6112437 -6039953 
306 -6001739 -5860684 -5898019 -5800803 -5776730 -5679148 
312 -5638744 -5561578 -5546446 -5490767 -5291812 -5388339 
318 -5202383 -5117035 -5155947 -5048359 -5089989 -4989294 
324 -4981399 -4839901 -4709040 -4710362 -4661519 -4527613 
330 -4661264 -4530884 -4411302 -4295555 -4270658 -4178519 
336 -4202840 -4132302 -3999273 -3955225 -3963319 -3798554 
342 -3844749 -3773082 -3761733 -3633800 -3467495 -3529252 
348 -3375911 -3435678 -3362540 -3404019 -3290206 -3153035 
354 -3046295 -3067605 -2954781 -2803588 -2868744 -2873491 
360 -2718602 -2772937 -2605901 -2607644 -2449279 -2424515 
366 -2323855 -2342592 -2340043 -2301753 -2161411 -2159882 
372 -2009320 -2041523 -1959816 -1914447 -1811297 -1786768 
378 -1743110 -1642185 -1604657 -1627454 -1629991 -1585171 
384 -1462015 -1351427 -1339121 -1349575 -1258207 -1187792 
390 -1115723 -1151302 -1043987 -1032451 -880095 -966113 
396 -843017 -820106 -779801 -673566 -554248 -543848 
402 -544957 -407279 -511679 -317182 -343899 -354351 
408 -202173 -223217 -141496 -118221 -161226 -30000 
414 46967 116933 86708 128163 180527 183747 
420 300033 309170 430259 428898 433310 408530 
426 435351 600138 465335 487520 725478 678457 
432 739454 766310 815520 949473 928875 978921 
438 963730 960438 1001329 1067228 1053498 1140203 
444 1121123 1103349 1218747 1271852 1303482 1327679 
450 1375843 1434124 1492946 1522804 1466255 1472411 
456 1566374 1574197 1565426 1545743 1634770 1551814 
462 1685110 1756482 1722139 1770828 1806835 1852189 
468 1762213 1855267 2061710 1931579 1881853 1918739 
474 1889243 2058042 2023950 2125986 2020456 2038532 
480 2072176 2210662 2197846 2179457 2117765 2257077 
486 2135218 2304722 2309149 2324284 2317013 2393966 
492 2427604 2274739 2432538 2346871 2404730 2445631 
498 2386443 2417398 2427113 2470247 2480813 2585998 
504 2503535 2559917 2523898 2561705 2635267 2598923 
510 2627454 2649235 2563680 2584605 2577720 2546910 
516 2709205 2745055 2684856 2723997 2767124 2696093 
522 2655410 2713895 2805249 2723303 2732874 2734271 
528 2804765 2688745 2821674 2726109 2756551 2735001 
534 2821550 2880494 2803445 2671402 2798743 2709007 
540 2848371 2735069 2775086 2865350 2892995 2642050 
546 2742329 2789428 2705331 2801280 2818562 2708937 
552 2790478 2742511 2770629 2814752 2765312 2714640 
558 2745251 2854975 2722091 2703801 2698844 2710780 
564 2764265 2631716 2723517 2659317 2749671 2696095 
570 2738108 2776558 2744406 2709790 2636863 2613040 
576 2571001 2604611 2599320 2541426 2614672 2610991 
582 2570046 2554377 2551607 2501069 2511278 2558995 
588 2590315 2472894 2604333 2509142 2520980 2466241 
594 2480800 2458829 2507039 2396156 2434755 2402101 
600 2533870 2418755 2506309 2418939 2268386 2324558 
606 2313872 2247836 2241734 2263036 2250962 2201361 
612 2278554 2184879 2186953 2233332 2183194 2169649 
618 2266679 2041080 2292471 1991526 2092344 2117884 
624 2065427 2060223 2011281 2001575 2074183 2021977 
630 2003726 2136387 2008755 1905112 1972006 1927196 
636 1913225 1849777 1811369 1918037 1794818 1818358 
642 1903247 1833220 1717060 1784386 1640826 1741053 
648 1673184 1777708 1620497 1694884 1708481 1631621 
654 1557309 1670093 1557356 1553590 1424503 1526795 
660 1572148 1525284 1497710 1613835 1437343 1458822 
666 1435810 1468832 1447786 1367111 1381428 1349584 
672 1361954 1297020 1354465 1271553 1247890 1362287 
678 1294142 1247338 1178106 1319838 1294546 1119358 
684 1076832 1152346 1130734 1132105 1067653 1108473 
690 1109250 1178333 1069003 1051438 1023218 1052743 
696 950992 938656 928808 888359 940305 773330 
702 936958 852504 868061 846418 863685 862768 
708 822296 813235 784006 787790 837888 777952 
714 762679 768277 761123 732048 716778 736128 
720 661435 803564 742498 674147 715471 705252 
726 706677 624332 600303 722292 519890 526482 
732 529461 516737 531816 590340 549131 407597 
738 470791 514981 547030 425693 469319 413022 
744 445734 479354 407640 434654 352629 395016 
750 343072 297524 429260 311197 312826 311978 
756 203521 329628 348316 415232 406104 408722 
762 297770 234410 287837 220961 201782 264583 
768 216414 232212 186338 198341 335379 271545 
774 84148 156899 118152 203683 157535 147208 
780 198899 150912 74065 96077 104375 177844 
786 130281 206935 48187 177562 100891 67863 
792 155756 110527 -13589 83925 66001 9750 
798 49255 97454 83522 622 -55991 93823 
804 -3513 87357 12525 40212 69 -18636 
810 7368 -43691 46664 106430 -5480 1727 
816 35272 -25297 -1464 -33316 -9004 -27294 
822 -67215 -3152 46401 -51898 11030 23228 
828 -91529 -66276 124023 -1889 22405 -64387 
834 65942 13157 -70123 -112750 -50345 -67094 
840 -123240 36023 -117132 -12987 5879 -1798 
846 9923 86747 -128816 -23613 -46370 -87790 
852 -47862 -125888 -114575 -94376 -45888 -163905 
858 -40515 44627 -28406 -117460 -25177 8317 
864 -166887 -123978 -121877 -65715 -18121 -14257 
870 -68822 -83751 -111266 -19085 939 -61615 
876 8222 -95179 -35455 -46120 -8510 -113962 
882 -95849 22808 -76905 -5634 17996 -146520 
888 -68456 -8198 -81761 64713 -24648 37 
894 -3483 11049 48082 16360 40394 52840 
900 28843 -5320 -41691 -46162 3909 60992 
906 70243 8888 72797 -24074 18190 60805 
912 21874 99202 -117779 31456 94941 52567 
918 14817 53171 48371 117090 75534 32008 
924 79841 174312 187105 130957 133781 90684 
930 104314 65009 186530 54242 134708 49122 
936 23859 53465 -44073 16813 86615 85626 
942 79988 62765 117504 88042 167445 153150 
948 163052 106525 80643 85651 81941 115911 
954 80671 87788 76817 136879 148673 95465 
960 153617 123540 101002 176457 71898 37499 
966 158955 175985 279981 133322 180658 137265 
972 118814 141935 89342 237328 206576 133435 
978 80361 120690 97371 149315 161217 223797 
984 235266 178710 31698 173534 146692 112311 
990 230840 230557 199073 182240 200785 67233 
996 86092 93568 67385 121040 155041 207478 
1002 226179 190841 148507 168284 153885 132921 
