##TITLE= 
##JCAMP-DX= 5.00 $$Spinapi version 20130917_x86_64
##DATA TYPE= NMR FID
##DATA CLASS= NTUPLES
##ORIGIN=
##OWNER=
##.OBSERVE FREQUENCY=21.150000
##.OBSERVE NUCLEUS=
##.DELAY= (0,0)
##.ACQUISITION MODE= SIMULTANEOUS
##.DIGITISER RES=14
##SPECTROMETER/DATA SYSTEM= SpinCore Technologies, Inc.  Radio Processor
##NTUPLES= NMR FID
##VAR_NAME=	TIME,		FID/REAL,	FID/IMAG,	PAGE NUMBER
##SYMBOL=	X,		R,		I,		N
##VAR_TYPE=	INDEPENDENT,	DEPENDENT,	DEPENDENT,	PAGE
##VAR_FORM=	AFFN,		AFFN,		AFFN,		AFFN
##VAR_DIM=	8192,		8192,		8192,		2
##UNITS=	SECONDS,	ARBITRARY UNITS,ARBITRARY UNITS,
##FIRST=	0.0,		4319271,		1561457,		1
##LAST=	 0.081920,		95751,		-41455,		2
##MIN=     0.0,        -4114769,     -3648620,     1
##MAX=      0.081920,        4319271,     4424852,     1
##FACTOR=	1.0001E+001,		1,		1,		1
##PAGE=		N=1
##DATA TABLE=	(X++(R..R)), XYDATA $$Real data points	
0 4319271 4268779 4062252 4048303 3876736 3767990 
6 3686343 3537082 3335998 3152930 3013400 2912402 
12 2655540 2486598 2201067 2005844 1920110 1667386 
18 1398948 1240246 1025104 945370 599981 367676 
24 192454 2651 -257684 -442913 -598493 -848542 
30 -988528 -1332993 -1383555 -1524849 -1807051 -1954354 
36 -2194276 -2429653 -2507619 -2640864 -2867342 -2909209 
42 -3129412 -3191678 -3313051 -3343185 -3641082 -3652076 
48 -3747012 -3795532 -3786663 -3867881 -3851203 -3951527 
54 -3982193 -4114769 -3991965 -4014370 -3916823 -3887079 
60 -3973846 -3946594 -3826486 -3784260 -3746126 -3666598 
66 -3565164 -3477938 -3534631 -3236485 -3085595 -3072908 
72 -2862291 -2776025 -2691833 -2485313 -2372159 -2116644 
78 -2087165 -1744592 -1652225 -1505840 -1248471 -1087739 
84 -886476 -751569 -551375 -366890 -311724 -114284 
90 137527 224074 457628 592610 809080 1021217 
96 1197401 1247630 1502397 1592805 1799216 1751315 
102 2065607 2087895 2257977 2284371 2420259 2595326 
108 2719995 2709425 2774068 2902188 2966089 3050023 
114 3135248 3071013 3070710 3124656 3229784 3229946 
120 3235814 3235752 3200765 3175859 3112247 3193088 
126 3076697 2926779 2872472 2801146 2830024 2638649 
132 2535913 2446756 2378042 2324141 2191889 2040763 
138 1967185 1667469 1717495 1599930 1441032 1188172 
144 1155643 1035771 898388 777742 660765 481544 
150 308399 260654 122227 -106411 -246580 -402329 
156 -653954 -639258 -758024 -937727 -1136551 -1201222 
162 -1286624 -1494872 -1598900 -1748811 -1839059 -1829120 
168 -1996419 -2115629 -2102154 -2215944 -2310446 -2258595 
174 -2378000 -2441485 -2448837 -2478337 -2551231 -2427770 
180 -2691909 -2544403 -2624387 -2557940 -2457786 -2538417 
186 -2516030 -2393426 -2401121 -2356359 -2342342 -2221470 
192 -2184176 -2095515 -2209836 -2018464 -1934013 -1815496 
198 -1718932 -1673555 -1618866 -1419134 -1354275 -1309536 
204 -1219112 -1051925 -925715 -913986 -777480 -551502 
210 -356299 -273481 -283867 -193804 -12183 103228 
216 264910 360210 447352 516687 675306 810885 
222 929178 1037797 1043657 1136187 1226404 1385810 
228 1384608 1570401 1628637 1548384 1679774 1783748 
234 1785809 1882995 1910468 2059750 1962736 2017444 
240 2098055 2037150 2131405 2163957 2112533 2117117 
246 2064550 2081365 1969142 1919560 1963179 1980328 
252 1905476 1851192 1763472 1745139 1721440 1606789 
258 1612203 1394006 1500626 1250121 1318756 1221658 
264 1141727 1059275 920528 833992 769178 684397 
270 600323 465136 456647 291215 157251 115288 
276 -130061 -128547 -204549 -416749 -404690 -519777 
282 -496637 -558493 -693860 -755199 -852979 -1035080 
288 -1073051 -1078848 -1128398 -1301167 -1311350 -1273057 
294 -1368118 -1410323 -1398182 -1519254 -1479875 -1539470 
300 -1677677 -1661278 -1621994 -1727250 -1728984 -1690731 
306 -1669420 -1716918 -1650377 -1603099 -1635430 -1528688 
312 -1511836 -1518233 -1515014 -1465061 -1466052 -1328669 
318 -1387236 -1356443 -1339780 -1252134 -1228480 -1146549 
324 -980815 -1013914 -922919 -775314 -808177 -665193 
330 -628498 -633356 -401012 -389484 -344690 -233652 
336 -208733 27866 -95982 45076 -1866 172611 
342 221215 414853 350406 460537 434700 475721 
348 499902 661384 747378 838956 860323 847378 
354 980918 984406 1065855 1127596 1028203 1260570 
360 1164306 1197200 1218465 1294626 1185850 1214484 
366 1280237 1157770 1253992 1142161 1393032 1208210 
372 1208453 1184385 1089853 1246395 1142968 1042547 
378 1069368 1062145 1068621 933327 890206 1032594 
384 855708 832046 705001 702891 658837 738226 
390 610756 457910 516457 419517 195639 275962 
396 358937 176586 267640 123547 54028 -27910 
402 -64596 -249099 -138811 -139377 -225367 -303975 
408 -358968 -320500 -340799 -534797 -609012 -569161 
414 -656135 -727239 -742988 -809629 -846175 -821796 
420 -782859 -827304 -845999 -892918 -851374 -914723 
426 -899789 -918248 -862563 -891300 -862723 -884409 
432 -1073646 -940860 -993537 -1016069 -901443 -879331 
438 -855416 -811488 -894012 -739458 -846880 -771866 
444 -746429 -713497 -650805 -662148 -614779 -556137 
450 -497925 -449371 -421710 -435921 -354465 -410308 
456 -290586 -167925 -236837 -199402 -179854 -110330 
462 16066 -108497 29336 73073 21611 158630 
468 106884 265564 266242 210192 276962 339391 
474 419308 392532 356476 465402 463428 476262 
480 560088 577409 643079 571917 641914 570318 
486 542789 582799 662097 619345 623962 644260 
492 637283 716673 580545 609954 639826 646155 
498 576710 660658 602718 715365 636790 577269 
504 658578 579489 601720 605421 504943 462060 
510 438511 434415 450111 471343 398287 249637 
516 320461 293363 250631 160005 231874 122778 
522 149355 93850 32359 68894 -25425 -53151 
528 -88658 -61727 -79914 -145672 -205334 -126986 
534 -199726 -181919 -180371 -351920 -276089 -392759 
540 -287952 -438408 -328848 -325659 -300766 -348237 
546 -412524 -507848 -395944 -562630 -563371 -418845 
552 -476356 -426579 -436871 -431292 -521762 -436844 
558 -395511 -448666 -421900 -379407 -432461 -445839 
564 -362940 -367916 -297743 -370359 -368583 -326958 
570 -338611 -285982 -280686 -202345 -207861 -243313 
576 -109577 -168152 -150264 -164367 -206530 -62251 
582 -118374 2962 -6040 -79183 -15971 118032 
588 3416 34512 148275 80473 140485 85169 
594 226482 85779 231820 41914 137899 193142 
600 228508 261002 202215 241724 306666 337884 
606 263811 270136 340772 329611 261186 266446 
612 272153 319218 279631 405823 312456 223378 
618 251116 281140 327247 232977 321312 328824 
624 170946 162680 178557 267477 170800 207600 
630 150113 150025 166946 178299 82347 74543 
636 91453 -8031 76372 114661 50549 -16630 
642 -50926 5399 -31502 115262 -16951 -6424 
648 59586 -23939 -81180 -69726 -85674 -67396 
654 -136697 -119457 -122582 -199965 -161146 -187558 
660 -120609 -163005 -139311 -169588 -185194 -249367 
666 -209989 -145838 -232622 -362791 -262229 -256790 
672 -289481 -238261 -295553 -279197 -239828 -147633 
678 -242379 -291864 -237675 -309245 -213962 -262589 
684 -131871 -156600 -129876 -80170 -118158 -153507 
690 -179612 -90776 -107245 -176189 41343 10305 
696 5718 -133920 -39996 -137 -27843 -29595 
702 14077 6638 26654 11783 106443 125639 
708 62649 126286 73520 210053 128636 185200 
714 52368 228641 108458 97840 191820 161888 
720 155894 303428 160007 220096 203813 208597 
726 186524 211742 183378 232292 167557 199268 
732 184910 202542 83314 181955 191337 140877 
738 177734 133913 65949 146022 223463 161285 
744 186316 180741 -6873 145945 75264 75198 
750 -12884 123129 41637 34484 -58618 28649 
756 26001 42692 5927 -35107 -62532 2157 
762 -73621 -28845 -18359 -62287 -40503 -147492 
768 -94644 -165224 -154359 -108558 -46244 -4518 
774 -158634 -129074 -173121 -205346 -175696 -138491 
780 -96897 -224181 -119523 -250969 -264143 -206104 
786 -182251 -121015 -252554 -236956 -175700 -279335 
792 -142039 -174461 -242870 -147273 -245130 -221781 
798 -239824 -145613 -155965 -153040 -65747 -146062 
804 -108928 -88826 -136357 -129363 -117102 -28648 
810 -122329 43597 -22121 -29941 16638 -18168 
816 -31279 37349 8543 50593 -52958 46417 
822 160422 8039 107050 121252 158047 249871 
828 -24246 134456 126055 205527 160987 167917 
834 143911 204407 172369 130528 214478 159156 
840 219409 314114 204233 320927 280989 237324 
846 319793 200090 286972 233929 271779 289747 
852 255174 232071 186626 147658 113398 242361 
858 290749 185723 244302 155522 161410 176983 
864 200944 151976 137165 134682 134105 60886 
870 88061 45770 102664 67125 77059 69477 
876 43357 -23844 20405 50380 -47291 -22495 
882 28893 -6965 -62811 -131428 -26249 -136097 
888 -125612 -103463 -192744 -132887 -99772 -213211 
894 -207802 -218343 -177120 -150291 -211851 -196851 
900 -198593 -287566 -274903 -250020 -226504 -226193 
906 -223368 -244190 -231195 -296213 -177571 -320528 
912 -236945 -227663 -283940 -245332 -353828 -178398 
918 -248884 -108379 -243541 -59949 -226059 -173445 
924 -157507 -153154 -133974 -179195 -140751 -214101 
930 -48520 -81615 -99534 -110629 -163495 -49031 
936 -80575 -36772 8310 -16692 19033 7527 
942 -1204 62878 172126 53764 26639 116150 
948 124768 136962 89159 257048 204727 226955 
954 191447 270209 254096 204692 214655 271346 
960 291681 313209 235465 212642 255786 273217 
966 212479 256236 357285 260048 286556 224636 
972 224046 241837 155619 220382 248742 285830 
978 297168 238506 186581 221129 255306 342245 
984 236025 130397 177984 216594 190433 210292 
990 134373 146634 199504 134030 51434 121996 
996 45637 113499 -9517 90985 127804 30891 
1002 55039 -56374 40974 -111542 -57566 -71684 
1008 -27722 -154054 -49622 -202475 -161211 -150230 
1014 -142353 -136975 -195799 -125560 -7436 -215999 
1020 -199536 -281219 -207258 -249453 -227719 -210780 
1026 -225667 -249982 -145289 -273657 -188561 -270556 
1032 -216609 -241178 -250139 -173241 -244682 -218689 
1038 -222563 -251038 -249148 -202081 -285231 -207130 
1044 -250552 -159757 -206324 -197204 -175192 -177418 
1050 -148857 -259925 -161616 -209213 -225825 -126867 
