##TITLE= 
##JCAMP-DX= 5.00 $$Spinapi version 20130917_x86_64
##DATA TYPE= NMR FID
##DATA CLASS= NTUPLES
##ORIGIN=
##OWNER=
##.OBSERVE FREQUENCY=21.150000
##.OBSERVE NUCLEUS=
##.DELAY= (0,0)
##.ACQUISITION MODE= SIMULTANEOUS
##.DIGITISER RES=14
##SPECTROMETER/DATA SYSTEM= SpinCore Technologies, Inc.  Radio Processor
##NTUPLES= NMR FID
##VAR_NAME=	TIME,		FID/REAL,	FID/IMAG,	PAGE NUMBER
##SYMBOL=	X,		R,		I,		N
##VAR_TYPE=	INDEPENDENT,	DEPENDENT,	DEPENDENT,	PAGE
##VAR_FORM=	AFFN,		AFFN,		AFFN,		AFFN
##VAR_DIM=	8192,		8192,		8192,		2
##UNITS=	SECONDS,	ARBITRARY UNITS,ARBITRARY UNITS,
##FIRST=	0.0,		7299813,		-5596322,		1
##LAST=	 0.081920,		-95267,		9926,		2
##MIN=     0.0,        -8326899,     -7761034,     1
##MAX=      0.081920,        9286104,     8865909,     1
##FACTOR=	1.0001E+001,		1,		1,		1
##PAGE=		N=1
##DATA TABLE=	(X++(R..R)), XYDATA $$Real data points	
0 7299813 7666299 7896099 8136640 8280654 8467472 
6 8631635 8794105 8967125 9027361 9061759 9117430 
12 9162549 9286104 9107340 9159825 9054716 9024560 
18 8911462 8791419 8660126 8393357 8370528 8149718 
24 7820333 7599215 7277500 7090080 6827350 6475990 
30 6208367 5883956 5471659 5108819 4763096 4384893 
36 4021167 3658086 3118075 2730168 2343382 2034881 
42 1542188 1070270 560047 190287 -274909 -652721 
48 -1107659 -1459914 -1881596 -2424330 -2735138 -3187470 
54 -3546919 -3913717 -4346000 -4685034 -5069997 -5310253 
60 -5734421 -5903223 -6242404 -6535943 -6697658 -6995431 
66 -7159711 -7346642 -7520439 -7750881 -7897828 -7997938 
72 -8044840 -8231448 -8307210 -8295215 -8312598 -8323965 
78 -8300066 -8326899 -8197708 -8068862 -8041896 -7900172 
84 -7711125 -7673269 -7541991 -7247655 -7103900 -6845704 
90 -6648785 -6327522 -6096825 -5833048 -5500329 -5264977 
96 -4940769 -4588222 -4223980 -3863194 -3372110 -3136529 
102 -2866516 -2400722 -2029078 -1715512 -1314431 -780356 
108 -471046 -34511 410015 734720 1015468 1423683 
114 1716656 2141625 2563329 2827318 3119666 3459719 
120 3800470 4091941 4424000 4644610 4962402 5217871 
126 5505719 5733926 5816771 6034175 6292405 6394718 
132 6601503 6652610 6852618 6943223 7022095 7026084 
138 7082348 6995206 7025783 7057711 7099538 7049614 
144 6956017 6823874 6642315 6667218 6413465 6327792 
150 6286279 6112285 5846929 5660470 5391663 5137284 
156 4984655 4676229 4419264 4212041 3924227 3537475 
162 3314283 2913651 2664136 2345885 1990662 1778429 
168 1384182 1061575 732311 286001 38249 -255659 
174 -580016 -934601 -1146642 -1424999 -1911434 -2288847 
180 -2364365 -2757645 -2966080 -3353034 -3526843 -3759547 
186 -4131998 -4209458 -4405895 -4589278 -4791948 -5073430 
192 -5189549 -5403934 -5409153 -5543483 -5654224 -5737191 
198 -5735530 -5894765 -5980618 -6017780 -5987542 -6030291 
204 -6033948 -5892962 -5944982 -5885901 -5776526 -5651857 
210 -5576078 -5427891 -5301687 -5155639 -5071236 -4771193 
216 -4594784 -4391366 -4243470 -4039090 -3819884 -3531852 
222 -3295815 -3158209 -2862717 -2616304 -2466449 -2067444 
228 -1832179 -1533726 -1320178 -1097329 -682563 -416804 
234 -131396 113770 422390 649024 930017 1158882 
240 1409192 1636719 1988596 2149471 2537254 2581091 
246 2866237 3046370 3306092 3409951 3631342 3693937 
252 3923460 4163375 4172902 4355501 4544154 4554324 
258 4709549 4811440 4780483 4921813 4857216 5016686 
264 4937441 5004063 5041727 4933004 4898678 4934486 
270 4803416 4792960 4640374 4735987 4496551 4369554 
276 4310878 4071511 4014561 3779593 3595814 3409345 
282 3331013 3112153 2958892 2711689 2507368 2362082 
288 2140592 1870346 1594206 1408013 1266613 996373 
294 817788 605113 325697 37693 -140567 -342222 
300 -712661 -802925 -1013080 -1233448 -1461862 -1619704 
306 -1838957 -2073492 -2287712 -2431641 -2573683 -2708389 
312 -2927843 -3115081 -3172051 -3326858 -3436062 -3554658 
318 -3604589 -3741432 -3887485 -3883170 -3973212 -4023662 
324 -4074641 -4030158 -4089428 -3996903 -4141968 -4046916 
330 -4086952 -4003060 -4099911 -3950229 -3938383 -3760581 
336 -3775308 -3701500 -3534936 -3556750 -3400810 -3252040 
342 -3174504 -2974408 -2821284 -2674697 -2605214 -2409641 
348 -2245748 -1912505 -1861292 -1757464 -1511509 -1325609 
354 -1139320 -994839 -754240 -593308 -449867 -314416 
360 -112494 82758 279930 404181 659527 713029 
366 941532 1194586 1269084 1544807 1597010 1820737 
372 1940506 2201473 2223001 2349313 2457968 2565057 
378 2704172 2689459 2750712 2921248 2861863 3002523 
384 3094164 3070853 3118344 3171588 3164473 3298177 
390 3209900 3309937 3257863 3312085 3176093 3220178 
396 3079330 3111400 3086481 3021843 3097038 2844439 
402 2828853 2671963 2601967 2495147 2510748 2385672 
408 2093635 2113752 1953078 1941879 1689096 1608153 
414 1395829 1232099 1139616 914625 838828 722552 
420 545191 378233 247978 183353 -100740 -307042 
426 -314423 -486716 -570579 -694124 -919297 -967430 
432 -1128524 -1226067 -1257339 -1432003 -1625575 -1687203 
438 -1791658 -1921566 -2007552 -1999551 -2167301 -2173960 
444 -2331203 -2318015 -2399073 -2396099 -2528380 -2523770 
450 -2533151 -2585433 -2553932 -2586427 -2567766 -2585245 
456 -2514372 -2564387 -2510907 -2585945 -2507548 -2446700 
462 -2408189 -2352854 -2303821 -2136001 -2217834 -2135833 
468 -2041504 -1904570 -1913474 -1669937 -1613692 -1606592 
474 -1533708 -1413779 -1297136 -1074105 -982712 -887373 
480 -911396 -773940 -563422 -481785 -475096 -310397 
486 -258416 11113 65605 243931 333094 370907 
492 521399 571650 712105 812370 861782 961773 
498 1155542 1205225 1187283 1244371 1502276 1326537 
504 1507193 1570868 1651510 1755121 1878174 1671526 
510 1868716 1917240 2014368 1978765 1947083 1991726 
516 1959970 2083452 1955993 1997174 1947827 1970165 
522 1976671 2005191 1940568 1784784 1776767 1873515 
528 1797262 1653553 1624869 1605429 1516660 1469157 
534 1434619 1331884 1298952 1183277 1168299 1147342 
540 829234 870294 753071 686653 579080 543680 
546 421314 328964 330511 246617 33110 26567 
552 -170279 -215089 -252416 -288487 -415632 -409908 
558 -550004 -572288 -743302 -900051 -921379 -860516 
564 -982660 -970026 -1121486 -1128143 -1194938 -1118154 
570 -1206471 -1354037 -1281364 -1452357 -1464402 -1389704 
576 -1400363 -1389212 -1509913 -1496437 -1492458 -1443166 
582 -1568146 -1519703 -1502351 -1514917 -1482917 -1439562 
588 -1469572 -1386467 -1311379 -1425921 -1288112 -1244205 
594 -1253568 -1221559 -1115716 -1125614 -1008245 -1002781 
600 -930371 -807418 -820465 -765747 -690144 -624072 
606 -468762 -542544 -401252 -327806 -363654 -254519 
612 -142688 -24621 -43841 -37676 71768 91770 
618 210042 178839 283396 318458 412655 465162 
624 378709 611931 642726 723543 761242 711276 
630 719247 849153 799600 843889 882508 901046 
636 954644 1019694 971544 1081065 1004852 1083661 
642 1115310 1099698 1052309 1040286 1148965 1050193 
648 1071989 999460 1077106 1030677 1014904 1011445 
654 1010806 886613 867394 892503 894843 794461 
660 868632 808993 771421 604333 652953 623040 
666 473023 467385 487400 417294 378418 371731 
672 270336 333243 219385 214344 113143 45366 
678 94207 27521 -18866 -121013 -133657 -177939 
684 -187155 -189352 -282438 -375427 -343131 -331992 
690 -406573 -496815 -499885 -566624 -557797 -548576 
696 -624716 -666467 -547922 -669626 -724543 -637939 
702 -665470 -731764 -746154 -756400 -832834 -842219 
708 -734640 -714902 -752976 -869436 -668156 -669018 
714 -721371 -710361 -654184 -645536 -585052 -609653 
720 -560346 -590904 -594941 -645128 -475357 -561008 
726 -513335 -517572 -402175 -368222 -431704 -365463 
732 -398468 -289416 -314834 -238017 -187082 -172649 
738 -106414 -77688 -112872 -54051 -45566 73654 
744 -37379 50443 83047 185147 187580 126609 
750 228562 229539 240755 422347 330598 343793 
756 267639 455475 329107 474367 450513 353333 
762 441908 515682 526036 535487 405838 456864 
768 539459 464886 458442 497763 569494 501460 
774 398029 558015 395432 513135 486523 504179 
780 479634 462149 317608 388541 322328 381648 
786 444376 356077 269433 297675 299487 324791 
792 231890 291303 164000 112921 178434 191531 
798 67261 20985 65721 6113 2605 -2783 
804 -8504 -10793 -9716 25150 -125746 -156248 
810 -162794 -61762 -108311 -171735 -194511 -192246 
816 -189639 -267381 -169300 -151201 -241320 -315483 
822 -306614 -318599 -275643 -402998 -294021 -383139 
828 -384731 -312132 -302606 -307650 -265586 -246470 
834 -365165 -342931 -269291 -256053 -278398 -339976 
840 -310610 -316483 -282756 -203330 -339617 -186933 
846 -137664 -276559 -183619 -213932 -120304 -140134 
852 -145776 -172232 -210748 -94578 -85519 -2273 
858 -79499 -56605 -130886 -56391 -8370 -123613 
864 41643 -45883 47709 -16827 61757 31982 
870 92670 81979 125519 93294 62812 157962 
876 189828 153277 190462 53600 200849 75580 
882 157997 212827 103587 192227 155872 164014 
888 159561 196328 185814 260868 148737 139997 
894 141242 198104 182852 148854 148067 103785 
900 116336 97614 2177 101240 117295 -14227 
906 31477 -32027 82088 -10600 107099 37681 
912 41852 -7623 65202 12023 84597 -17237 
918 -105866 -81946 -36037 -97278 -121892 -40197 
924 -111265 -94084 -86804 -160183 -67922 -156113 
930 -190387 -77280 -107785 -72454 -93649 -111702 
936 -113940 -144937 -66979 -229278 -86750 -110267 
942 -132995 -241995 -179262 -107170 -152864 -132242 
948 -129518 -110377 -81138 -105251 -52754 -124098 
954 -155093 -71544 12118 -59800 -30194 -35456 
960 -10694 -52966 19268 3160 -24120 18413 
966 -22261 129905 92828 57377 -48858 24514 
972 142813 -12476 112262 131378 119274 88269 
978 103117 183618 106331 228667 191779 100021 
984 187249 104015 184306 58731 140534 130648 
990 79256 134177 96966 103982 181101 244181 
996 101451 115263 150121 148161 97796 109535 
1002 153379 122071 74392 67333 34747 112685 
1008 -15552 1482 45108 -318 -36727 -40783 
1014 55138 -45971 -7471 -55632 60122 -47218 
1020 -49745 -42015 -8748 -97222 -184652 -128950 
