##TITLE= 
##JCAMP-DX= 5.00 $$Spinapi version 20130917_x86_64
##DATA TYPE= NMR FID
##DATA CLASS= NTUPLES
##ORIGIN=
##OWNER=
##.OBSERVE FREQUENCY=21.000000
##.OBSERVE NUCLEUS=
##.DELAY= (0,0)
##.ACQUISITION MODE= SIMULTANEOUS
##.DIGITISER RES=14
##SPECTROMETER/DATA SYSTEM= SpinCore Technologies, Inc.  Radio Processor
##NTUPLES= NMR FID
##VAR_NAME=	TIME,		FID/REAL,	FID/IMAG,	PAGE NUMBER
##SYMBOL=	X,		R,		I,		N
##VAR_TYPE=	INDEPENDENT,	DEPENDENT,	DEPENDENT,	PAGE
##VAR_FORM=	AFFN,		AFFN,		AFFN,		AFFN
##VAR_DIM=	8192,		8192,		8192,		2
##UNITS=	SECONDS,	ARBITRARY UNITS,ARBITRARY UNITS,
##FIRST=	0.0,		1427696,		-383362,		1
##LAST=	 0.081920,		-104052,		-65390,		2
##MIN=     0.0,        -1423043,     -895853,     1
##MAX=      0.081920,        1492166,     903088,     1
##FACTOR=	1.0001E+001,		1,		1,		1
##PAGE=		N=1
##DATA TABLE=	(X++(R..R)), XYDATA $$Real data points	
0 1427696 -1363042 1294769 -1376533 1267680 -1252755 
6 1343770 -1404676 1447434 -1366687 1286638 -1266313 
12 1360184 -1391955 1292954 -1352252 1420735 -1318711 
18 1379054 -1423043 1492166 -1355741 1343917 -1235210 
24 1397802 -1415962 1379116 -1349497 1410109 -1405482 
30 1414873 -1377585 1354568 -1318651 1366195 -1372499 
36 1409271 -1411827 1402876 -1384670 1386027 -1395786 
42 1409652 -1356319 1279568 -1326632 1327133 -1353807 
48 1279789 -1252963 1405306 -1361318 1332356 -1359906 
54 1369343 -1343377 1381328 -1288695 1338159 -1287555 
60 1275808 -1255910 1266470 -1322269 1281903 -1212313 
66 1348739 -1260828 1210288 -1232637 1247888 -1255418 
72 1273992 -1250682 1328617 -1171255 1285711 -1256287 
78 1273356 -1216247 1275815 -1324698 1298609 -1228818 
84 1187155 -1203042 1238595 -1188893 1176249 -1160009 
90 1223444 -1248575 1152876 -1178625 1224410 -1083916 
96 1159578 -1131014 1132947 -1186096 1108782 -1058116 
102 1045364 -1146887 1173556 -1149704 1119800 -1187733 
108 1072046 -1063578 1078064 -1126195 1081669 -991082 
114 1080456 -1029903 1077838 -913841 1074506 -1117212 
120 1037667 -982591 1124237 -1068232 960422 -1091506 
126 998471 -988577 1049692 -899552 1004147 -941352 
132 955117 -852662 877879 -969617 1001690 -934551 
138 889499 -899421 812381 -923836 917028 -878129 
144 860754 -856794 835134 -928992 905573 -850358 
150 844512 -902136 804319 -825637 820684 -791200 
156 650413 -713403 746242 -839728 818230 -792486 
162 702642 -757214 646537 -702088 690301 -637657 
168 658054 -540828 682453 -658940 705037 -576743 
174 619272 -670613 622916 -687970 535359 -558846 
180 572138 -631182 547510 -551929 558110 -578566 
186 538982 -502056 550031 -503427 591417 -625912 
192 538041 -522280 608688 -503861 500335 -443837 
198 580033 -506892 407413 -371621 430752 -520687 
204 428042 -378133 490711 -420511 449703 -342282 
210 339730 -377863 383169 -323563 305094 -367917 
216 349008 -292279 198220 -252205 219495 -337926 
222 277849 -224183 283460 -195634 343857 -257040 
228 171685 -257486 271475 -317644 301141 -288496 
234 317736 -226942 155532 -185577 78381 -99082 
240 229050 -169689 82142 -184562 144428 -106232 
246 102241 -158532 101736 -123397 115497 -49460 
252 136360 -78374 89492 -109582 68429 -83788 
258 104246 -9973 110039 -58233 132096 -57644 
264 -45614 -51284 42600 58086 40755 -29762 
270 18693 1089 -55543 9350 5037 55960 
276 -9939 -7532 -157233 25742 -32008 -45150 
282 25399 118341 60388 -18901 -89070 85549 
288 -104686 84794 -49381 -9911 -78217 172184 
294 -86557 138200 -113938 289494 -96142 165149 
300 -214644 75658 -151451 291798 -207842 111074 
306 -238308 96917 -206406 240440 -192014 247969 
312 -210753 257959 -123770 149950 -171592 280513 
318 -248884 272866 -211285 261770 -166350 215639 
324 -193909 299506 -206212 214177 -319150 288586 
330 -238302 208045 -288540 306372 -327920 222540 
336 -355246 314618 -281390 353303 -303034 345061 
342 -278554 239837 -225065 295100 -239604 351582 
348 -277069 329052 -362489 312039 -239981 361115 
354 -301635 276073 -269788 236008 -224519 336118 
360 -295750 307564 -255451 284657 -213285 311242 
366 -349438 316821 -447101 282531 -337443 266616 
372 -387926 362734 -431969 326047 -361839 301038 
378 -354892 440253 -338712 343966 -334932 371044 
384 -460070 394332 -381814 357378 -499147 386217 
390 -385627 432702 -367280 314288 -345414 466961 
396 -327981 383534 -425534 395986 -355056 380503 
402 -347875 349789 -323437 318686 -308521 434624 
408 -397623 308034 -366253 431866 -381367 318507 
414 -391932 305555 -425396 396889 -305030 460222 
420 -470866 351321 -400761 319677 -333925 297722 
426 -476084 373836 -409280 284768 -393593 351736 
432 -350061 386040 -389588 337874 -420691 415705 
438 -432776 330371 -358671 349530 -405034 354251 
444 -397246 336725 -302745 421864 -281596 326450 
450 -360760 371582 -312660 289301 -334861 370148 
456 -331613 250406 -464076 297926 -386108 367733 
462 -368057 326653 -384599 334367 -399321 474736 
468 -340870 419357 -455468 353578 -343466 294915 
474 -289403 377900 -386931 332727 -337659 322454 
480 -383263 389004 -372980 379534 -382191 314920 
486 -380377 245216 -366993 353797 -383574 264273 
492 -306024 319802 -410029 342241 -316540 315943 
498 -249016 239099 -280719 311401 -350624 339904 
504 -277136 321545 -243544 258645 -331687 289797 
510 -316366 309327 -264032 385497 -325037 259070 
516 -368621 279570 -307136 244735 -254324 266193 
522 -276598 320530 -260613 289634 -237438 216806 
528 -237235 178825 -313065 230447 -210433 185455 
534 -297243 184133 -322000 202970 -274356 300000 
540 -300963 337294 -326496 196888 -296689 214513 
546 -320802 199186 -283960 178948 -296500 283381 
552 -114446 195851 -217317 283298 -260155 278667 
558 -166782 330884 -295460 167314 -271666 184177 
564 -219368 199770 -192968 172271 -208257 192605 
570 -265841 210244 -111575 184117 -177872 158343 
576 -130431 214696 -141891 159250 -168590 189135 
582 -204343 245272 -307356 207710 -187696 195067 
588 -168927 154218 -63812 146010 -146742 238801 
594 -146756 161671 -214377 226773 -306974 171823 
600 -195824 163867 -96532 184160 -200371 144286 
606 -195605 189060 -89542 140154 -84587 159606 
612 -191378 154809 -82209 166137 -114941 232380 
618 -101785 120230 -104939 145931 -175926 115896 
624 -107973 226548 -220448 122766 -94513 104015 
630 -116741 70326 -84734 66013 -6840 87547 
636 -71892 100484 -51842 89321 -58251 104106 
642 -210733 111835 -42013 83207 -24530 119720 
648 -99030 118900 -179546 -8211 -127294 181132 
654 -114256 98726 -105670 52870 -100566 78033 
660 -89682 192708 6563 55865 -84680 29820 
666 -89712 33759 50341 -32388 -143902 48292 
672 19380 38910 -58492 76803 -69376 75841 
678 -1913 82080 -65822 67015 38338 2332 
684 -26851 63287 -49934 127749 -129634 91501 
690 -6599 -13861 82484 -47567 -108270 -39860 
696 6604 121140 -79858 7141 -95376 32629 
702 -6331 -20417 -23994 9909 -377 -40586 
708 30787 -8437 3039 58303 -7805 32192 
714 -3910 52315 74681 -41173 51204 75386 
720 8368 -4745 -15460 -46458 -81920 -825 
726 17996 -695 -40663 -6949 -47854 12519 
732 19612 26949 -72064 -998 65491 -9149 
738 -1074 13707 61093 -29639 53923 -13939 
744 -6163 -4922 40399 59631 -33123 -30958 
750 29185 99670 66699 -22451 -17284 81682 
756 -8450 -29779 34315 32808 50029 7495 
762 9144 -89584 72726 -111604 12474 551 
768 45678 45193 -31771 51032 101646 -90474 
774 -28356 -73302 77659 -144486 -2791 61709 
780 44437 -11304 92209 -20250 110859 -49888 
786 67946 44307 24575 14158 20683 -44191 
792 3420 -31932 3325 -12802 51016 -42189 
798 -36306 -37547 -21039 -117873 45660 -115193 
804 84357 -133336 -9980 -101557 7080 -40165 
810 17202 14990 -76052 25380 59446 -49835 
816 22259 -124622 32832 -16597 56613 30248 
822 73189 -37898 -36785 -111226 5332 -16677 
828 18259 -1755 57496 -92832 55939 -34964 
834 68731 -148910 30087 -26173 35240 73410 
840 51347 -1039 91853 -10761 185 -95769 
846 87255 -81282 65209 -44617 103509 -62623 
852 44691 4660 35182 -111189 145045 162764 
858 43052 41198 71407 -13721 -2311 62932 
864 33078 5163 127193 40279 125605 550 
870 -6136 -67929 32556 -109065 9655 -33933 
876 71009 -50513 23217 -90458 6604 -109061 
882 32546 -33203 -9431 13484 30111 -31079 
888 42361 -42611 -67752 34798 -32730 68030 
894 72051 -47455 60659 -6422 -73862 -58487 
900 41733 77750 -72515 1941 119653 -44591 
906 13161 12933 -81954 -78144 -12056 -66599 
912 1101 73127 44566 -70465 64337 7381 
918 258 -19976 89213 95585 47784 -43535 
924 -5122 -56404 62498 -54191 -37706 29143 
930 56766 5483 -25816 -85619 3188 -127954 
936 -61231 -60849 70033 -54637 -118223 63127 
942 24475 -66151 59278 -161485 53451 -32280 
948 84555 35250 21953 -61260 -59971 67121 
954 17697 -83860 4498 100029 74012 58234 
960 -2437 -88214 -35734 44566 -15296 -41316 
966 30848 27132 -59893 14831 -27110 64626 
972 -93161 90419 24239 29425 -289 19339 
978 -7157 131893 -79549 -75539 -29070 11403 
984 60848 -14457 5538 -75626 58442 -20104 
990 38922 111890 -27571 -21140 2692 48334 
996 -70315 64884 -88178 106208 51150 -8412 
1002 -66459 -20285 61632 113589 -71268 141561 
1008 -16732 -269 -65316 121134 74901 85035 
1014 -99095 71714 -84384 -33971 -66437 -20709 
1020 -64733 42545 -68089 23675 -3652 251 
1026 -12723 123450 15677 -16022 -21244 14757 
1032 -939 -69085 -116033 26739 55246 47379 
1038 47120 61673 35235 79807 -84565 35057 
1044 -38948 128006 37951 -2192 68936 50055 
1050 -79391 -6412 28783 -9186 -65848 -27212 
1056 -32247 -1690 -106136 28261 -134873 -88250 
1062 -26730 52522 -25377 37572 -87369 -25674 
1068 -68353 31795 -57198 17211 60907 -84963 
1074 -16143 -44910 -143737 104526 18210 59341 
1080 -82517 -39221 110742 -5637 -47446 28336 
1086 -8928 91570 -69225 74093 -27531 23955 
1092 -60869 24721 -94211 4414 -20079 11662 
1098 35797 53108 4454 -25057 -126121 77201 
1104 -9392 15791 -81661 -29293 -78187 37059 
1110 -86031 97442 -16921 112996 -33633 67044 
1116 -102178 58744 28062 31006 -101496 7919 
