##TITLE= 
##JCAMP-DX= 5.00 $$Spinapi version 20130917_x86_64
##DATA TYPE= NMR FID
##DATA CLASS= NTUPLES
##ORIGIN=
##OWNER=
##.OBSERVE FREQUENCY=21.151001
##.OBSERVE NUCLEUS=
##.DELAY= (0,0)
##.ACQUISITION MODE= SIMULTANEOUS
##.DIGITISER RES=14
##SPECTROMETER/DATA SYSTEM= SpinCore Technologies, Inc.  Radio Processor
##NTUPLES= NMR FID
##VAR_NAME=	TIME,		FID/REAL,	FID/IMAG,	PAGE NUMBER
##SYMBOL=	X,		R,		I,		N
##VAR_TYPE=	INDEPENDENT,	DEPENDENT,	DEPENDENT,	PAGE
##VAR_FORM=	AFFN,		AFFN,		AFFN,		AFFN
##VAR_DIM=	8192,		8192,		8192,		2
##UNITS=	SECONDS,	ARBITRARY UNITS,ARBITRARY UNITS,
##FIRST=	0.0,		11994366,		-504951,		1
##LAST=	 0.081920,		99706,		44631,		2
##MIN=     0.0,        -4866503,     -2388777,     1
##MAX=      0.081920,        12154661,     8296510,     1
##FACTOR=	1.0001E+001,		1,		1,		1
##PAGE=		N=1
##DATA TABLE=	(X++(R..R)), XYDATA $$Real data points	
0 11994366 11954048 11898830 11986424 12032598 12050869 
6 11982485 12154661 12057119 12004016 12001227 11996888 
12 11944597 11907325 11974500 11891714 11897748 11927709 
18 11898991 11913774 11829472 11902458 11910809 11803902 
24 11789285 11797076 11712429 11713344 11665065 11633263 
30 11644754 11590895 11553253 11524606 11571293 11511671 
36 11419069 11409749 11367088 11292925 11267312 11288523 
42 11195704 11180190 11119194 11035543 11105700 10918894 
48 10989259 10877342 10869016 10780316 10763034 10760116 
54 10595627 10732313 10579465 10521230 10475210 10493722 
60 10395421 10329809 10343514 10293530 10108105 10101478 
66 10089265 10072694 10044333 9945510 9872996 9835677 
72 9734245 9630509 9643229 9575319 9558561 9445713 
78 9437300 9385257 9300535 9203916 9181823 9068103 
84 9048348 9048196 8873568 8763238 8728470 8756764 
90 8692085 8559296 8414429 8253509 8265695 8278565 
96 8141249 8076355 7942749 7981492 7877396 7817352 
102 7672032 7744522 7590948 7406165 7404543 7337052 
108 7283395 7296402 7073130 7036315 6934466 6887405 
114 6800133 6765441 6699474 6510063 6443103 6488460 
120 6278571 6328603 6242378 6113344 6049800 5962030 
126 5863311 5817184 5710480 5681384 5678384 5542858 
132 5390179 5423968 5184455 5070451 5022594 4989740 
138 4900766 4924384 4688913 4708436 4657716 4490950 
144 4472162 4389171 4290954 4312317 4190137 4033774 
150 3974036 4012471 3771738 3728696 3604564 3586749 
156 3529920 3494920 3258741 3262735 3224030 3160860 
162 3045839 2983112 2883011 2896276 2715806 2637367 
168 2463776 2424017 2364544 2213656 2182645 2128807 
174 2022467 1959798 1998347 1808024 1704293 1698125 
180 1601689 1552540 1466133 1308102 1379143 1269847 
186 1174198 1008170 982819 943244 974483 737528 
192 708208 620225 647478 522533 453797 381849 
198 245469 168055 229839 80929 37835 -23218 
204 -69982 -75448 -214651 -254230 -474813 -535150 
210 -520845 -646272 -607558 -762661 -776566 -877609 
216 -875293 -963692 -927628 -1101093 -1078097 -1223081 
222 -1284848 -1285799 -1279380 -1366137 -1529631 -1582793 
228 -1663820 -1726782 -1697797 -1814623 -1792584 -1999647 
234 -2042886 -2030009 -2029409 -2029007 -2219629 -2219734 
240 -2269901 -2331477 -2421328 -2365517 -2416914 -2544755 
246 -2497795 -2539742 -2725927 -2641107 -2803000 -2730775 
252 -2859314 -2920900 -2963454 -2909611 -3047100 -3019727 
258 -3110007 -3156626 -3223754 -3213230 -3352344 -3239636 
264 -3396719 -3429120 -3343849 -3452561 -3503164 -3464636 
270 -3464014 -3628897 -3573053 -3692214 -3637179 -3821687 
276 -3832714 -3790691 -3790617 -3821076 -3917717 -3944226 
282 -3917823 -4004250 -4052821 -4138323 -4117014 -4133734 
288 -4192497 -4169741 -4138993 -4304239 -4122896 -4300259 
294 -4239603 -4233859 -4244812 -4367006 -4344650 -4299300 
300 -4387012 -4439237 -4317383 -4418653 -4445522 -4559617 
306 -4418463 -4505767 -4558369 -4492314 -4542072 -4572346 
312 -4478305 -4578754 -4593174 -4626899 -4667446 -4652726 
318 -4640223 -4665903 -4709638 -4749690 -4739191 -4715687 
324 -4685933 -4653449 -4649311 -4646661 -4685492 -4675709 
330 -4801571 -4769906 -4777315 -4811212 -4700134 -4770329 
336 -4866503 -4790751 -4751031 -4810099 -4782081 -4771294 
342 -4724004 -4777727 -4629591 -4652205 -4718008 -4713748 
348 -4793997 -4729997 -4755543 -4725280 -4823171 -4693585 
354 -4821507 -4662269 -4712722 -4717708 -4679824 -4644157 
360 -4702536 -4709199 -4698355 -4654691 -4700412 -4672905 
366 -4685103 -4578172 -4625339 -4559973 -4542296 -4540206 
372 -4594975 -4518338 -4415203 -4515773 -4612561 -4550496 
378 -4474227 -4415725 -4373977 -4433948 -4368984 -4430711 
384 -4381718 -4420957 -4399811 -4434532 -4325024 -4366756 
390 -4406221 -4392555 -4312268 -4351194 -4310209 -4214351 
396 -4276608 -4232054 -4259339 -4125990 -4099083 -4213134 
402 -4088018 -4003976 -4090885 -3984740 -4026699 -4020554 
408 -4056784 -3977657 -3914990 -3993693 -3906880 -3926929 
414 -3938924 -3855283 -3816437 -3857982 -3799844 -3807333 
420 -3708643 -3751666 -3732456 -3614487 -3747553 -3471868 
426 -3647516 -3640380 -3582594 -3637720 -3535882 -3491341 
432 -3519083 -3537784 -3352929 -3428506 -3389885 -3365856 
438 -3354794 -3250181 -3322472 -3235501 -3245958 -3248917 
444 -3229567 -3115935 -3233071 -3131996 -3150865 -3096702 
450 -2965161 -2942505 -2971283 -2956754 -2843558 -2964947 
456 -2900247 -2798119 -2833415 -2843373 -2857756 -2644906 
462 -2863605 -2746403 -2695380 -2744737 -2693211 -2671709 
468 -2707477 -2662498 -2468923 -2517798 -2470230 -2411272 
474 -2474726 -2372848 -2402012 -2379389 -2333758 -2328702 
480 -2351427 -2299451 -2192186 -2254699 -2235959 -2100223 
486 -2098095 -2187540 -2175947 -2023585 -2012342 -2066090 
492 -2032113 -1999853 -1989689 -1875720 -1895289 -1922655 
498 -1841557 -1900732 -1720302 -1766393 -1802278 -1763814 
504 -1709647 -1649876 -1683608 -1623001 -1671041 -1599814 
510 -1569549 -1535257 -1551613 -1542673 -1401840 -1457692 
516 -1409180 -1420853 -1483334 -1456828 -1403455 -1414927 
522 -1279124 -1173207 -1239900 -1192773 -1297090 -1283094 
528 -1161710 -1209725 -1077680 -1168374 -1125729 -1034716 
534 -1103291 -1005691 -972027 -1005464 -918120 -1022990 
540 -959246 -895561 -800265 -856965 -807185 -797934 
546 -793839 -862187 -686385 -675887 -702791 -562285 
552 -726759 -704948 -675459 -709014 -567714 -566245 
558 -513492 -637553 -450663 -633151 -449446 -495411 
564 -486586 -453756 -525796 -366391 -370939 -371492 
570 -307360 -268690 -258662 -303901 -280707 -312128 
576 -235096 -247645 -197564 -178442 -142194 -193685 
582 -223936 -114040 -116599 -146287 -5240 -114364 
588 -22337 -99058 -87191 -81919 5707 9713 
594 56800 103749 37645 43633 53295 74563 
600 79201 103675 64666 139343 201624 195986 
606 174629 207650 312395 370724 165331 283078 
612 279715 230951 232655 299930 386020 299794 
618 373651 347050 348210 447959 309075 402841 
624 305439 363591 494347 398458 474692 457295 
630 442612 520047 495982 409862 447525 503743 
636 530503 447961 481924 513351 596352 482814 
642 463617 552320 473323 599792 593351 570411 
648 606451 494895 616221 579259 478152 548473 
654 624092 622053 595955 605595 644149 639307 
660 602102 727708 561964 637512 627962 695637 
666 677067 754234 658926 669282 648096 663375 
672 837870 672985 690575 729726 743407 777928 
678 806053 690613 780212 675657 722686 781705 
684 871581 850569 868194 782353 677056 716569 
690 804660 828853 678802 792365 750981 886843 
696 821008 796066 785004 738442 820512 738021 
702 751186 780957 721357 833822 721920 792022 
708 715987 778495 815343 844519 815991 843841 
714 843450 833184 825078 879336 698760 770071 
720 746277 809712 811184 750058 787218 741163 
726 818151 800052 829097 666531 801136 733554 
732 714636 761234 785534 821871 782591 808824 
738 699263 837277 778027 788665 725266 757799 
744 718106 651414 827813 712297 701969 682948 
750 734441 883111 718647 673457 775131 692230 
756 762619 778292 670560 720967 639106 732644 
762 736758 706457 680428 669336 739232 717662 
768 731352 694753 609346 671033 652074 605832 
774 672686 714945 602093 590068 724588 620006 
780 587918 677398 591627 615344 586222 633775 
786 583904 653629 662817 658442 587634 612314 
792 521229 570986 558198 444204 513547 544633 
798 529611 490540 502600 588542 446966 578850 
804 500181 549761 553682 414027 439346 449197 
810 447837 466286 397105 416160 435217 455188 
816 521196 439030 451215 442144 392611 387468 
822 288101 484291 354167 430513 434654 376952 
828 380412 434718 389363 419259 304673 337304 
834 338831 321252 389949 216342 446157 362547 
840 370126 292755 355500 251209 338799 269361 
846 272249 215125 293784 197489 229775 268528 
852 258277 300127 227305 269384 253369 192772 
858 163705 115259 221331 253042 217437 191731 
864 93625 143356 256693 280630 205782 189888 
870 126706 85894 61972 122180 63724 158187 
876 130697 181338 204025 115349 143447 96538 
882 -12396 81898 -7683 18146 72992 81672 
888 180878 14213 40008 -6083 590 -44797 
894 6933 59113 52619 707 37038 17375 
900 71271 72848 50751 91594 -43759 7950 
906 55870 -95924 1424 -34187 -41784 21774 
912 -106976 -34217 -59076 -109168 -68637 6779 
918 -1109 -39933 -64829 -55514 -31891 -156565 
924 -106251 9307 -89513 -74899 -19515 -60013 
930 29768 -40001 16562 -158333 -66137 -88278 
936 -22807 -43473 -65166 -77334 -170107 -47053 
942 -107190 -12044 -192716 -170785 -113705 -127289 
948 -143605 -147569 -108038 -191037 -111170 -186671 
954 -21392 -196001 -75098 -107206 -157985 -23542 
960 -82281 -289569 -128194 -152505 -193122 -201804 
966 -73988 -156829 -161273 -35240 -164877 -158978 
972 -119495 -234794 -108372 -231705 -91336 -247110 
978 -129373 -218081 -186663 -137731 -128454 -58443 
984 -244434 -101833 -180866 -189153 -153044 -156357 
990 -225306 -219853 -201995 -139455 -56503 -153793 
996 -158762 -173725 -244868 -119621 -218101 -164268 
1002 -170339 -161726 -139666 -144538 -141076 -238030 
1008 -230469 -165687 -193454 -209771 -140697 -170978 
1014 -121400 -210925 -198109 -69767 -196853 -138423 
1020 -125887 -105260 -179687 -89821 -147897 -35361 
1026 -240725 -142193 -101936 -36761 -200239 -44178 
1032 -58254 -81364 -88792 -194110 -63655 -174944 
