##TITLE= 
##JCAMP-DX= 5.00 $$Spinapi version 20130917_x86_64
##DATA TYPE= NMR FID
##DATA CLASS= NTUPLES
##ORIGIN=
##OWNER=
##.OBSERVE FREQUENCY=21.150000
##.OBSERVE NUCLEUS=
##.DELAY= (0,0)
##.ACQUISITION MODE= SIMULTANEOUS
##.DIGITISER RES=14
##SPECTROMETER/DATA SYSTEM= SpinCore Technologies, Inc.  Radio Processor
##NTUPLES= NMR FID
##VAR_NAME=	TIME,		FID/REAL,	FID/IMAG,	PAGE NUMBER
##SYMBOL=	X,		R,		I,		N
##VAR_TYPE=	INDEPENDENT,	DEPENDENT,	DEPENDENT,	PAGE
##VAR_FORM=	AFFN,		AFFN,		AFFN,		AFFN
##VAR_DIM=	8192,		8192,		8192,		2
##UNITS=	SECONDS,	ARBITRARY UNITS,ARBITRARY UNITS,
##FIRST=	0.0,		10898118,		-8496890,		1
##LAST=	 0.273067,		9537,		56781,		2
##MIN=     0.0,        -11922221,     -10729629,     1
##MAX=      0.273067,        13809099,     13076408,     1
##FACTOR=	3.3337E+001,		1,		1,		1
##PAGE=		N=1
##DATA TABLE=	(X++(R..R)), XYDATA $$Real data points	
0 10898118 11895677 12759015 13317328 13712266 13809099 
6 13650522 13313830 12725299 11926217 10981742 9820162 
12 8527583 7034743 5495660 3848077 2174452 514873 
18 -1218080 -2845220 -4392137 -5863625 -7239408 -8462444 
24 -9533472 -10373438 -11053553 -11576074 -11879751 -11922221 
30 -11826989 -11504646 -10943298 -10241422 -9370312 -8320464 
36 -7177570 -5931494 -4593886 -3186301 -1762004 -343411 
42 1069597 2394661 3676907 4993376 6089290 7022971 
48 7840383 8569693 9028854 9425686 9546942 9617018 
54 9455829 9078928 8633181 7914905 7172003 6296312 
60 5378571 4301994 3141274 2017971 855011 -289289 
66 -1467225 -2478635 -3480253 -4443857 -5272970 -6040055 
72 -6678157 -7139403 -7477582 -7652851 -7685216 -7645574 
78 -7473817 -7135538 -6649018 -6060666 -5420498 -4675161 
84 -3854790 -3018129 -2126394 -1133623 -278057 648976 
90 1500966 2324081 3083038 3808958 4447348 4940418 
96 5338643 5696021 5926852 6036292 6013099 5906965 
102 5731738 5415962 4993053 4574483 4045283 3476829 
108 2810755 2148948 1499472 762424 26105 -654689 
114 -1287914 -1909790 -2428804 -2981379 -3398225 -3826009 
120 -4079628 -4333841 -4445167 -4475689 -4479676 -4388486 
126 -4200888 -3973344 -3700435 -3298008 -2937431 -2451859 
132 -2024440 -1506348 -985245 -458496 24543 494575 
138 989646 1434092 1851013 2238295 2570637 2836567 
144 3039451 3215521 3303239 3287932 3263064 3159294 
150 3094775 2869457 2598900 2360183 2093969 1818220 
156 1476154 1102071 721281 386863 -56762 -376274 
162 -705926 -998134 -1326915 -1558961 -1810833 -2001113 
168 -2114146 -2212769 -2292259 -2312773 -2352429 -2248838 
174 -2159648 -2072801 -1930677 -1732572 -1525803 -1284860 
180 -1024843 -819633 -547106 -328172 -68981 237773 
186 460459 635003 833406 1029863 1142356 1272883 
192 1350470 1474428 1410394 1501061 1544816 1499686 
198 1410263 1337943 1208266 1111958 1032967 814198 
204 696933 465555 368791 185104 -7105 -126477 
210 -266858 -419739 -551403 -640842 -758066 -867102 
216 -863580 -898615 -939128 -994315 -936292 -919514 
222 -866090 -808996 -738728 -651295 -582088 -495147 
228 -395770 -268080 -171905 -113484 -29776 91106 
234 188806 263921 327967 360931 490164 456138 
240 522835 516593 535839 528751 532433 449010 
246 386543 309310 295664 315843 236793 149391 
252 104805 34556 16788 -95319 -89858 -115265 
258 -181997 -226513 -252831 -235936 -282802 -297668 
264 -250623 -309406 -196859 -189357 -179270 -149681 
270 -71698 -46128 -899 -45458 50104 68639 
276 124366 138277 133708 153709 163146 214673 
282 187168 158972 171991 92609 63031 48383 
288 48734 47126 20624 -75660 -91026 -106702 
294 -131317 -172143 -196540 -220529 -242774 -243773 
300 -244174 -275071 -261434 -209607 -227191 -238070 
306 -200788 -151917 -71850 -88537 -21260 40215 
312 42624 156976 151381 214278 242929 300226 
318 365739 360275 388963 404957 376726 394150 
324 411187 380467 343318 256788 255186 184232 
330 203823 95385 49993 54343 -38801 -48483 
336 -202467 -302309 -296687 -344670 -374197 -416734 
342 -429966 -441350 -487895 -546316 -518925 -487034 
348 -446200 -429440 -430221 -340763 -317085 -190953 
354 -166527 -157422 -9583 -11088 65643 184803 
360 255898 284166 350796 375853 460784 505379 
366 519070 572956 497885 554835 557414 557755 
372 520822 468619 471416 365189 343045 234132 
378 179215 134218 26911 -62728 -139262 -169895 
384 -255056 -261681 -362277 -403874 -447818 -500353 
390 -551565 -579464 -588518 -542573 -544884 -513519 
396 -502103 -475183 -436849 -375115 -290066 -260178 
402 -217572 -130105 -48487 50049 73896 190809 
408 245344 331571 360280 365555 447324 514687 
414 546833 590120 588229 514431 536044 513382 
420 506817 456748 398941 415704 323780 223049 
426 188445 113523 50866 -30992 -114973 -181692 
432 -209875 -306851 -386706 -407977 -421421 -514319 
438 -495961 -521839 -507323 -567400 -490320 -433911 
444 -474610 -387169 -395538 -328617 -268632 -229816 
450 -140470 -114358 -45122 -14682 34407 195032 
456 196390 274625 315023 391023 405395 430614 
462 446217 440626 524031 473414 447802 467590 
468 391688 382687 372693 272819 215091 203063 
474 176251 57952 40179 -32525 -99075 -110360 
480 -219358 -307908 -301700 -358487 -374010 -394031 
486 -380010 -368971 -378462 -402462 -435535 -362940 
492 -325089 -303216 -231700 -258143 -199431 -141433 
498 -49688 -20241 22445 73827 71362 119312 
504 177812 206622 282478 308342 305982 357697 
510 337425 338957 347862 340738 311939 259409 
516 288541 184801 203264 203635 89813 122086 
522 22298 7324 -18157 -72219 -99036 -168478 
528 -209418 -236022 -247312 -292168 -271422 -334763 
534 -257053 -314806 -252269 -253145 -237150 -243666 
540 -201566 -152814 -103004 -75727 -77406 -61151 
546 -41334 27808 52586 114363 108086 104106 
552 138206 149681 163185 180786 168488 195763 
558 206404 242141 161049 168582 167477 144804 
564 140390 120146 21594 50255 42423 10747 
570 19184 -42053 -77635 -85377 -81836 -112476 
576 -98888 -126658 -116379 -92406 -104734 -161394 
582 -109046 -86954 -75962 -83183 -21782 -8343 
588 -2046 -18548 29013 13703 54872 57250 
594 49967 14425 50743 38750 71704 53420 
600 72905 97694 36254 54352 47788 14379 
606 13804 -14763 -35270 -7545 -13622 -2800 
612 -46390 -61539 -93138 -81615 -70386 -41078 
618 -101353 -37414 -87820 -78685 -31555 -48462 
624 -23267 -35481 2373 -42885 -1688 7568 
630 -3496 67027 53011 45700 7925 45313 
636 91375 97718 87298 86961 89806 118461 
642 98894 55074 27602 34480 12319 -37790 
648 25845 -670 -41588 -56656 -82461 -71862 
654 -88933 -67887 -88921 -78114 -104295 -98901 
660 -112531 -152417 -138706 -127496 -82956 -105989 
666 -117482 -80619 -68305 -51596 -19395 -10466 
672 17151 41221 31095 50524 60145 98037 
678 104096 67517 107771 116596 123385 137403 
684 161338 123665 111326 152703 96721 94846 
690 130853 103772 57327 70761 11836 -35931 
696 -14369 -44218 -74100 -76481 -110493 -92563 
702 -107315 -114782 -150739 -120695 -130085 -109915 
708 -141101 -191480 -135548 -107786 -115528 -144503 
714 -89349 -38496 -5069 -53627 -22956 -30231 
720 43671 -39031 21248 54652 52536 46077 
726 105196 101175 90188 96394 185618 109638 
732 101187 113141 131240 118228 82498 17303 
738 59026 87120 75074 29463 17165 3066 
744 -27746 -33445 -16942 -41102 -39987 -54348 
750 -61328 -72413 -85040 -109334 -106576 -111843 
756 -75752 -119151 -112786 -124380 -164291 -69908 
762 -35399 -93665 -64017 -31016 -60238 -46655 
768 -28849 159 26925 -28013 22579 43125 
774 30737 28344 31962 87283 72547 60768 
780 107501 73276 47502 111400 52152 76857 
786 63713 86872 38961 13096 48243 55097 
792 4935 22430 27044 33051 -9076 5040 
798 -20814 5820 -26954 -63918 -66326 -17878 
804 -70074 -52136 -57545 -31513 -53546 -70377 
810 -53615 -80522 -51727 -62588 -75795 -79501 
816 -82222 -40752 -47301 -54953 -22052 -22714 
822 -31929 -27658 -24380 -8091 -21948 7429 
828 -6956 -1357 28930 4371 85323 72023 
834 148162 106743 164057 62449 121188 90466 
840 106546 85416 88489 32931 17770 69385 
846 63052 51412 -1578 -37445 -9195 -26533 
852 -29322 -65061 -87989 -50338 -76692 -79363 
858 -64562 -65182 -83341 -111993 -72810 -82177 
864 -67766 -134816 -95446 -103488 -73270 -64002 
870 -75163 -13541 -11822 -25284 -43971 1705 
876 -482 57897 -4623 90588 77650 107013 
882 111409 105412 119190 101143 152534 99648 
888 128100 94310 66496 91339 71891 69080 
894 29874 29761 49496 45062 51479 23037 
900 -39223 -64483 -30466 -73301 -117607 -65499 
906 -58665 -120849 -99320 -127850 -157192 -109066 
912 -99040 -105200 -93755 -58193 -44906 -64725 
918 -43135 -53357 -26509 29295 -15370 36004 
924 8230 13234 40698 36025 41052 60268 
930 46778 81494 52735 83431 90518 96665 
936 74800 41895 46187 14521 8284 118228 
942 11825 9849 30128 20586 -25413 6564 
948 -11047 -33263 -61112 -9025 -44381 -53699 
954 -41073 -93658 -77957 -94871 -97380 -69453 
960 -52245 -72076 -59649 -70779 -66172 -60487 
966 -46020 27164 9304 -19824 41646 20337 
972 24851 -4941 -2801 27061 82163 68654 
978 64727 69184 82708 95988 57560 52100 
984 18608 27097 14196 8176 36714 -12305 
990 16399 5572 27222 64961 -28593 8408 
996 -35873 -26497 -22849 -42448 -16017 9388 
1002 -10669 -65945 -39828 -81959 -60640 -22658 
1008 -63691 -70240 -1869 -46709 -31406 -20126 
1014 -50410 31359 14339 50515 -40989 -19870 
1020 -43096 49485 2876 27257 72636 -9471 
1026 21786 -10474 -5357 -25275 3945 -37227 
1032 2086 -6184 39663 23564 29739 -8919 
1038 -50102 -27454 74 -28240 -5993 5647 
1044 -3864 -29871 -9444 9923 -12237 16489 
1050 31532 -3581 -31985 -23419 -39637 -21816 
1056 5953 14014 44791 -18302 -34914 -44534 
1062 -4145 17958 34488 33599 62726 -9569 
1068 13145 49265 -13693 -34361 3787 10844 
1074 -49138 -23049 -42161 -32003 11073 27456 
1080 -35271 -32028 -10316 -54285 -26219 -50822 
1086 -62953 -30484 -30489 -21952 -25122 -56934 
1092 29868 10926 -28632 9081 21926 -12325 
1098 -7951 27128 42606 6601 64852 63844 
1104 29770 62123 87958 13876 -5119 33411 
1110 30586 69190 38931 10960 39693 24324 
