##TITLE= 
##JCAMP-DX= 5.00 $$Spinapi version 20130917_x86_64
##DATA TYPE= NMR FID
##DATA CLASS= NTUPLES
##ORIGIN=
##OWNER=
##.OBSERVE FREQUENCY=21.150000
##.OBSERVE NUCLEUS=
##.DELAY= (0,0)
##.ACQUISITION MODE= SIMULTANEOUS
##.DIGITISER RES=14
##SPECTROMETER/DATA SYSTEM= SpinCore Technologies, Inc.  Radio Processor
##NTUPLES= NMR FID
##VAR_NAME=	TIME,		FID/REAL,	FID/IMAG,	PAGE NUMBER
##SYMBOL=	X,		R,		I,		N
##VAR_TYPE=	INDEPENDENT,	DEPENDENT,	DEPENDENT,	PAGE
##VAR_FORM=	AFFN,		AFFN,		AFFN,		AFFN
##VAR_DIM=	8192,		8192,		8192,		2
##UNITS=	SECONDS,	ARBITRARY UNITS,ARBITRARY UNITS,
##FIRST=	0.0,		14392510,		-12781787,		1
##LAST=	 0.048169,		175820,		-79821,		2
##MIN=     0.0,        -16882155,     -15142922,     1
##MAX=      0.048169,        19516447,     18471104,     1
##FACTOR=	5.8807E+000,		1,		1,		1
##PAGE=		N=1
##DATA TABLE=	(X++(R..R)), XYDATA $$Real data points	
0 14392510 14907626 15171637 15490394 15610791 16085710 
6 15969865 16555826 16599022 16873613 17163165 17292694 
12 17588249 17854177 17963416 18124553 18321562 18485174 
18 18615614 18632987 18956326 18921039 19008694 19086380 
24 19237711 19233327 19332980 19380151 19361952 19417160 
30 19489421 19516447 19499490 19335612 19350770 19476240 
36 19273678 19393594 19171676 19152845 19111500 19008063 
42 18742254 18885895 18639250 18523310 18338913 18133234 
48 18217233 17949087 17647861 17394597 17432127 17219952 
54 16862921 16897410 16514679 16218872 16045250 15738079 
60 15503400 15250022 15110148 14650336 14538112 14034854 
66 13795697 13468468 13069458 12941695 12424599 12176879 
72 11866485 11485907 11201168 10778383 10379397 10063410 
78 9703527 9220338 8959789 8644564 8028464 7756330 
84 7351288 6933734 6574313 6173731 5760414 5264783 
90 4916695 4598241 4278397 3720317 3358293 2922182 
96 2428131 2197824 1732230 1350623 805990 452150 
102 -32092 -498472 -872841 -1243251 -1476593 -2027777 
108 -2309948 -2775457 -3289920 -3519844 -4117844 -4333716 
114 -4689575 -5145716 -5542224 -5963066 -6356799 -6669637 
120 -7083775 -7312903 -7670786 -8129990 -8599578 -8925693 
126 -9205671 -9406740 -9778897 -10006853 -10404179 -10856572 
132 -11104474 -11445521 -11696864 -11936503 -12244992 -12451194 
138 -12613073 -12945958 -13163220 -13396388 -13760663 -13909518 
144 -14215261 -14220427 -14553617 -14819718 -14904033 -15130855 
150 -15065603 -15515073 -15568468 -15763704 -15897313 -15938776 
156 -15998115 -16171407 -16427689 -16481835 -16446028 -16715024 
162 -16479040 -16531068 -16628517 -16790128 -16766625 -16882155 
168 -16877830 -16820095 -16780575 -16724865 -16710872 -16683558 
174 -16706643 -16629032 -16565306 -16525037 -16476502 -16345665 
180 -16171905 -16148900 -16078475 -15936049 -15712865 -15566090 
186 -15514681 -15299806 -15278460 -14964489 -14803847 -14580181 
192 -14288284 -14364972 -14110063 -13801429 -13612559 -13470351 
198 -13030040 -12954855 -12633117 -12383147 -12255294 -11915536 
204 -11654397 -11406131 -11204546 -10944744 -10465416 -10293932 
210 -10051651 -9571527 -9433924 -9069974 -8759717 -8412486 
216 -8140259 -7799091 -7316616 -7148285 -6718405 -6570402 
222 -6033246 -5677573 -5543952 -5084331 -4751645 -4471739 
228 -4033872 -3657301 -3449096 -3002999 -2723189 -2407008 
234 -2075407 -1569107 -1204958 -812250 -536350 -247479 
240 266152 417006 747287 1164948 1563161 1854464 
246 2009346 2327695 2954012 3049631 3408986 3746181 
252 4093854 4370127 4756103 5107602 5417858 5703396 
258 5853639 6321797 6455005 6844042 7146020 7330753 
264 7724020 8051946 8244788 8456158 8769392 8978042 
270 9178801 9622379 9715556 9919858 10194649 10373680 
276 10806571 10790939 11066069 11197588 11473779 11445882 
282 11666070 11793933 12098945 12112798 12437370 12325893 
288 12471680 12826258 12723802 12873628 12923541 12890126 
294 13232536 13068198 13256179 13250952 13321097 13322542 
300 13446681 13431720 13437255 13508392 13345728 13429961 
306 13442466 13316002 13410536 13311695 13355159 13245083 
312 13213950 13315382 13078530 13065842 13092765 13044790 
318 12797088 12704888 12656490 12558220 12377671 12228009 
324 12108355 11983715 11996371 11746474 11425944 11344524 
330 11296814 11032722 10788058 10549371 10403973 10394018 
336 10023826 9887582 9692381 9511826 9191067 8969542 
342 8890373 8620383 8198262 8062796 7865202 7582504 
348 7457657 7097589 6882554 6559363 6290412 6017558 
354 5869155 5562932 5277397 4938619 4758924 4289447 
360 4138276 3871215 3711290 3452394 3081623 2826829 
366 2376879 2191701 1835087 1615494 1281813 881635 
372 770193 499865 151271 -62177 -378762 -663009 
378 -832838 -1223292 -1483130 -1681882 -2030271 -2309424 
384 -2524379 -2843427 -3051371 -3381948 -3691623 -3850424 
390 -4141112 -4429310 -4564243 -4916488 -5057697 -5497144 
396 -5561432 -5687794 -6068057 -6373381 -6486291 -6563567 
402 -6908941 -7069420 -7290092 -7302305 -7540757 -7725184 
408 -7952621 -8078999 -8309198 -8389794 -8627292 -8839724 
414 -8985042 -9086280 -9080374 -9314509 -9474435 -9623907 
420 -9770853 -9806090 -9771573 -9903143 -10058807 -10268263 
426 -10394803 -10247417 -10371140 -10532656 -10561482 -10667714 
432 -10618918 -10691790 -10668241 -10788885 -10848920 -10800250 
438 -10806914 -10703218 -10909267 -10678868 -10707731 -10727901 
444 -10800176 -10617765 -10726879 -10614933 -10532377 -10426045 
450 -10489895 -10456275 -10467958 -10173202 -10120220 -10013773 
456 -9820658 -9935699 -9721647 -9565533 -9656926 -9387603 
462 -9469596 -9228183 -9205976 -8886956 -8728385 -8682304 
468 -8516266 -8384511 -8199776 -8156610 -7848037 -7919074 
474 -7590873 -7409540 -7299711 -6972914 -6832520 -6767881 
480 -6521893 -6278273 -6135703 -6005102 -5773378 -5554784 
486 -5279240 -5006504 -4885440 -4567250 -4469345 -4252610 
492 -4142418 -3797746 -3541017 -3448240 -3101059 -2934950 
498 -2754527 -2497582 -2196857 -1998969 -1853711 -1788487 
504 -1488961 -1213521 -972166 -679774 -632263 -322545 
510 -13045 60634 347443 698962 655417 996551 
516 1262937 1423753 1747347 1777345 2176923 2348285 
522 2566130 2641210 2813494 3031632 3478119 3459171 
528 3730237 3786860 4241081 4186846 4240386 4635295 
534 4653731 4884381 5123175 5345387 5380033 5456085 
540 5616455 5843911 6014755 5964057 6165559 6438398 
546 6460038 6616556 6709446 6788434 6986334 7095045 
552 7131577 7142907 7502639 7285699 7711711 7495255 
558 7763759 7713603 7849625 7956131 8029272 8002877 
564 8195452 8121854 8219154 8226163 8248246 8448352 
570 8273607 8212002 8423113 8356506 8441066 8475705 
576 8416525 8352914 8384073 8421287 8213951 8138833 
582 8128740 8231853 8007679 8204690 7909839 8068869 
588 7914667 8011192 7936637 7830577 7827518 7628250 
594 7556186 7458824 7361805 7320482 7274055 7132554 
600 6925223 6996509 6778276 6749345 6516823 6569343 
606 6443446 6263624 6171601 5927701 5798178 5530027 
612 5529927 5504682 5323265 5120774 4944848 4920529 
618 4705803 4607767 4464102 4433972 4168948 3840058 
624 3977989 3714674 3506750 3381031 3169653 3104303 
630 2880967 2794634 2416296 2353476 2032439 1981514 
636 1819174 1542578 1432829 1451430 1124173 876091 
642 839003 651195 583248 415374 246256 96173 
648 -267420 -377665 -448977 -555855 -880233 -846920 
654 -1074623 -1385539 -1449295 -1671509 -1760884 -2082537 
660 -1921335 -2287259 -2261495 -2355825 -2669154 -2662728 
666 -3083216 -2951750 -3149222 -3408887 -3437369 -3616092 
672 -3773187 -3852811 -4064979 -4266805 -3970489 -4282350 
678 -4485758 -4463566 -4639764 -4628160 -4902765 -4910540 
684 -5138686 -5064080 -5086260 -5280874 -5531620 -5463591 
690 -5521518 -5711544 -5683147 -5709048 -5817226 -5630707 
696 -5816338 -5923489 -5848369 -5989177 -6054483 -6207785 
702 -6108077 -6154795 -6215777 -6243635 -6168351 -6227382 
708 -6213538 -6286669 -6376622 -6295870 -6257215 -6239602 
714 -6230391 -6192026 -6343627 -6234420 -6163785 -6198559 
720 -6081706 -6126849 -6100090 -5920278 -6056055 -5998028 
726 -6026744 -5769252 -5874651 -5708387 -5702497 -5618325 
732 -5756243 -5392681 -5483630 -5379556 -5271098 -5146260 
738 -5112012 -5083852 -4996510 -4907588 -4673907 -4699466 
744 -4555078 -4602759 -4282424 -4392146 -4167616 -4137079 
750 -3916991 -3824210 -3844974 -3720727 -3708245 -3631592 
756 -3521878 -3197541 -3100568 -3039480 -2975426 -2829899 
762 -2780264 -2594427 -2439144 -2320875 -2205653 -2200410 
768 -2005845 -1886786 -1751036 -1695882 -1663932 -1465693 
774 -1218933 -1167171 -1090753 -657678 -789521 -699942 
780 -459039 -549897 -377978 -82969 98262 96902 
786 206052 237124 452681 577917 664175 823983 
792 923583 1048498 1115205 1211409 1391895 1279725 
798 1524247 1810685 1766647 2033700 1973194 2027260 
804 2151339 2353806 2545276 2502318 2603770 2760084 
810 2861341 2796223 3018706 2986786 3081979 3198310 
816 3138860 3201692 3355364 3478705 3559234 3600651 
822 3744787 3778644 3839900 4085637 3903655 3857443 
828 3923224 4077447 4243029 4124510 4129139 4254061 
834 4117435 4304945 4360351 4385981 4338170 4407040 
840 4460009 4474854 4396026 4587514 4429613 4514626 
846 4674041 4545733 4389678 4472990 4461026 4496103 
852 4564026 4507559 4587900 4415676 4473560 4417341 
858 4370717 4420579 4477100 4423971 4214525 4183460 
864 4250936 4242594 4138648 4332389 4156202 4142169 
870 3998563 3947972 3881774 3938316 4003610 3826154 
876 3751350 3606976 3678703 3604562 3449984 3352806 
882 3312324 3356664 3175903 3259540 3123291 2788455 
888 2832368 2843902 2852342 2755877 2729074 2629032 
894 2458711 2425163 2332318 2071437 2166982 2108610 
900 1892010 1871843 1873544 1802700 1628811 1681380 
906 1609942 1344703 1334158 1169726 1115623 1083701 
912 950488 862476 710547 708019 586222 419449 
918 457234 204775 263635 228329 83735 -77242 
924 -60694 -216333 -107916 -241533 -395114 -554420 
930 -375657 -699738 -570668 -791195 -1129088 -909864 
936 -1110437 -1186893 -1135602 -1259822 -1202795 -1493067 
