##TITLE= 
##JCAMP-DX= 5.00 $$Spinapi version 20130917_x86_64
##DATA TYPE= NMR FID
##DATA CLASS= NTUPLES
##ORIGIN=
##OWNER=
##.OBSERVE FREQUENCY=21.150000
##.OBSERVE NUCLEUS=
##.DELAY= (0,0)
##.ACQUISITION MODE= SIMULTANEOUS
##.DIGITISER RES=14
##SPECTROMETER/DATA SYSTEM= SpinCore Technologies, Inc.  Radio Processor
##NTUPLES= NMR FID
##VAR_NAME=	TIME,		FID/REAL,	FID/IMAG,	PAGE NUMBER
##SYMBOL=	X,		R,		I,		N
##VAR_TYPE=	INDEPENDENT,	DEPENDENT,	DEPENDENT,	PAGE
##VAR_FORM=	AFFN,		AFFN,		AFFN,		AFFN
##VAR_DIM=	8192,		8192,		8192,		2
##UNITS=	SECONDS,	ARBITRARY UNITS,ARBITRARY UNITS,
##FIRST=	0.0,		10222059,		-10084512,		1
##LAST=	 0.071216,		100304,		-622,		2
##MIN=     0.0,        -12021842,     -10644194,     1
##MAX=      0.071216,        14446058,     13433631,     1
##FACTOR=	8.6944E+000,		1,		1,		1
##PAGE=		N=1
##DATA TABLE=	(X++(R..R)), XYDATA $$Real data points	
0 10222059 10513552 10825724 11014814 11347744 11641573 
6 11955168 12124025 12411981 12576025 12796743 12967791 
12 13135909 13322763 13479689 13655114 13687805 13860290 
18 14066891 14066002 14084409 14222637 14183375 14251372 
24 14317151 14446058 14384657 14364594 14238132 14231770 
30 14292315 14139858 13923907 14011913 13867973 13720158 
36 13650926 13402157 13285423 13221552 12927043 12714928 
42 12570563 12324488 12065235 11909924 11659363 11400149 
48 11162925 10866600 10532951 10286050 9938660 9742362 
54 9387576 8990904 8642460 8406652 8046014 7736018 
60 7297546 6987942 6547802 6216927 5873705 5513685 
66 5040661 4660869 4271297 3951116 3396535 3127531 
72 2635074 2233081 1885565 1420942 1074157 740054 
78 299221 -118959 -581046 -968000 -1227876 -1684221 
84 -2100777 -2411409 -2838997 -3207781 -3610099 -4026196 
90 -4380804 -4721118 -5008574 -5435263 -5800904 -5968786 
96 -6496211 -6691294 -7092686 -7360186 -7714877 -7980872 
102 -8222214 -8515095 -8735070 -9013947 -9307570 -9484571 
108 -9759911 -9957225 -10119778 -10397393 -10507413 -10696148 
114 -10885266 -10963271 -11096922 -11242549 -11392261 -11532089 
120 -11603764 -11757055 -11917793 -11926549 -11910228 -11935907 
126 -12016394 -12017466 -11996673 -12021842 -11985548 -11887574 
132 -11815419 -11851966 -11798538 -11719649 -11693010 -11530076 
138 -11476384 -11387712 -11303058 -11138106 -11001883 -10699987 
144 -10707415 -10529933 -10330990 -10173570 -9973366 -9676601 
150 -9484385 -9144670 -8981926 -8819756 -8454474 -8266797 
156 -7973893 -7808496 -7498897 -7186282 -6866559 -6531328 
162 -6413358 -5938298 -5694484 -5430722 -5196823 -4767085 
168 -4599676 -4111931 -3794550 -3623862 -3127510 -2958045 
174 -2601294 -2239591 -1811190 -1594802 -1227011 -924226 
180 -601195 -244161 26982 447768 809417 1105473 
186 1476617 1724544 1982277 2319135 2691403 2907465 
192 3200164 3532790 3791978 4018844 4370236 4572878 
198 4876521 5202777 5442756 5643216 5974018 6202823 
204 6319316 6593840 6829954 6976368 7276419 7432732 
210 7598718 7738730 8007758 8014832 8236272 8341921 
216 8509128 8674244 8768357 8893557 8892075 9051263 
222 9162951 9220000 9217489 9330060 9397082 9344115 
228 9372394 9360102 9435164 9317886 9334734 9364106 
234 9316313 9223328 9217614 9065371 9091129 8970441 
240 8920414 8854506 8741617 8515489 8436889 8365544 
246 8186305 8067933 7982155 7722312 7704896 7523119 
252 7270110 7180151 6908286 6773213 6554999 6313044 
258 6065521 5866694 5740594 5408972 5304406 5042546 
264 4734240 4525892 4359821 4079744 3831942 3566090 
270 3400751 3048043 2812950 2561347 2198722 2047292 
276 1757717 1452546 1228812 1056208 666511 401530 
282 244377 -95637 -184063 -489093 -787089 -1072492 
288 -1325253 -1504088 -1687047 -1992009 -2277235 -2444424 
294 -2765585 -2971677 -3213286 -3371257 -3619937 -3855746 
300 -4001750 -4213280 -4407196 -4537753 -4781247 -4957323 
306 -5092197 -5318468 -5443368 -5529646 -5705953 -5924032 
312 -6064398 -6157687 -6264102 -6348881 -6506149 -6635890 
318 -6710558 -6724193 -6789251 -6918998 -6984564 -7132651 
324 -7145391 -7122435 -7197156 -7279873 -7130581 -7227243 
330 -7289513 -7258484 -7292968 -7373428 -7292564 -7225057 
336 -7180360 -7133316 -7116482 -7039432 -7003778 -6957547 
342 -6779868 -6822535 -6681912 -6709393 -6465234 -6433490 
348 -6316155 -6200476 -6132611 -6031545 -5878940 -5645768 
354 -5576782 -5445254 -5352556 -5198884 -5062963 -4924796 
360 -4727794 -4495731 -4386732 -4142172 -4021009 -3934873 
366 -3570790 -3477324 -3284012 -3065942 -2920425 -2753016 
372 -2486089 -2326010 -2180902 -1901648 -1688033 -1480898 
378 -1423681 -1204879 -1045080 -839564 -635143 -342576 
384 -185277 16808 67874 324730 521903 748687 
390 930177 1026477 1319768 1544341 1676222 1856923 
396 2009692 2172599 2327847 2526802 2598424 2727898 
402 2986199 3077508 3250508 3408579 3545366 3626850 
408 3771329 3878634 3989884 4076027 4200036 4349779 
414 4528187 4536822 4634293 4790243 4722752 4832605 
420 5011400 4973815 5038808 5162298 5199801 5197499 
426 5289876 5383242 5419693 5353755 5394916 5368155 
432 5339013 5450367 5438752 5379767 5437559 5314284 
438 5335429 5360700 5235742 5239258 5233455 5175647 
444 5055567 5046725 4947823 4919134 4874158 4815356 
450 4633920 4630898 4598901 4492514 4335881 4231318 
456 4157832 4030328 3863031 3847272 3687101 3603331 
462 3527790 3387271 3205228 3113274 3020165 2810431 
468 2779460 2628736 2478661 2236032 2237740 2079079 
474 1959508 1859510 1616368 1544648 1317759 1210733 
480 1051328 941263 804892 745929 539715 396727 
486 212267 103084 9577 -240991 -231196 -497503 
492 -679302 -758838 -835276 -932815 -1110193 -1229220 
498 -1317037 -1426354 -1526970 -1665112 -1795703 -1945108 
504 -1940229 -2066315 -2158795 -2302893 -2479958 -2611756 
510 -2591234 -2622726 -2804370 -2880283 -2956851 -3043902 
516 -3126988 -3214069 -3264727 -3367388 -3436995 -3478411 
522 -3465500 -3581343 -3484656 -3645714 -3649173 -3636568 
528 -3780740 -3733426 -3762263 -3732844 -3944019 -3862499 
534 -3806394 -3862819 -3821838 -3812563 -3778607 -3799092 
540 -3683658 -3800990 -3682862 -3655993 -3757015 -3672045 
546 -3560176 -3636191 -3553480 -3550768 -3471311 -3527243 
552 -3285423 -3396163 -3330901 -3223617 -3120427 -3141905 
558 -3006499 -2974624 -2823601 -2889100 -2685818 -2644815 
564 -2588199 -2477238 -2465788 -2346890 -2197562 -2172768 
570 -2106645 -1964249 -1952054 -1841505 -1731075 -1744456 
576 -1558085 -1380801 -1317133 -1273100 -1163491 -1020319 
582 -915260 -868315 -824921 -690090 -577845 -572295 
588 -451552 -239758 -183612 -78293 1889 141483 
594 245933 304055 386376 469515 565951 633166 
600 792985 773551 862085 955600 1033567 1100750 
606 1325579 1378672 1472384 1429585 1544887 1589607 
612 1682408 1688560 1875745 1857490 1965170 1985775 
618 2124415 1969683 2071426 2252643 2175162 2320869 
624 2400291 2278996 2357439 2397533 2406081 2454960 
630 2502993 2524860 2559808 2498002 2492423 2667562 
636 2572803 2589986 2538554 2630221 2560395 2647385 
642 2634936 2580190 2640144 2484112 2538167 2522307 
648 2488992 2451547 2500432 2386895 2362746 2322880 
654 2360059 2276460 2313100 2210457 2201659 2156398 
660 2165850 2057564 2021792 1997312 1960883 1947603 
666 1839587 1718749 1711346 1751764 1626318 1560208 
672 1537030 1423797 1382897 1386154 1325477 1205455 
678 1185957 1104848 1097022 1030592 770760 746718 
684 844099 765266 661472 580525 544296 431140 
690 423318 376970 236365 214510 98485 116126 
696 71519 83924 -122347 -198741 -187752 -204676 
702 -275690 -356825 -455872 -505025 -544194 -609841 
708 -716197 -741548 -751199 -822261 -833630 -900835 
714 -869263 -924471 -1085732 -1098237 -1106954 -1105988 
720 -1264001 -1360316 -1228925 -1310027 -1287040 -1384263 
726 -1380214 -1422006 -1464304 -1498148 -1427618 -1563587 
732 -1560529 -1518733 -1560907 -1565218 -1650375 -1558873 
738 -1660042 -1559378 -1655430 -1618848 -1596339 -1679594 
744 -1647541 -1686954 -1602373 -1543961 -1568145 -1545079 
750 -1562177 -1582506 -1642425 -1519417 -1545909 -1561319 
756 -1545802 -1452280 -1537720 -1506953 -1433012 -1417267 
762 -1401318 -1312345 -1345174 -1300323 -1259722 -1310149 
768 -1179777 -1202970 -1194674 -1095117 -1091982 -1068811 
774 -1102095 -1023049 -825444 -968424 -951226 -844292 
780 -777220 -819169 -769841 -741875 -690219 -582268 
786 -620491 -534140 -433911 -444040 -465334 -295336 
792 -368503 -323811 -246624 -181930 -84169 -125434 
798 -34419 -129242 -6306 53495 4013 70951 
804 86090 201641 241561 156763 299417 300394 
810 366045 321968 297152 390219 410211 435191 
816 507867 541321 555648 522358 627988 694677 
822 684349 729623 777747 802459 722849 658012 
828 690912 903496 865617 866668 829733 843719 
834 874039 949410 944027 926919 900751 940947 
840 919282 985778 961292 857607 926395 931887 
846 881481 958455 892545 915592 869574 807251 
852 932206 875232 862402 871533 860416 869609 
858 838427 858086 780254 841300 851938 857767 
864 841865 846958 697030 797546 683327 767167 
870 685246 595183 629904 643695 593528 591965 
876 549909 558252 471821 486538 522646 466514 
882 387620 522314 454613 444714 254747 268833 
888 250865 198349 201066 259161 186905 189128 
894 221569 115051 148675 44227 95635 115916 
900 50386 17321 -118971 -15014 -67599 -140850 
906 -146537 -102795 -124620 -179126 -220641 -177265 
912 -197435 -250413 -176990 -307058 -247464 -284780 
918 -351356 -366730 -336186 -404268 -340921 -435019 
924 -440536 -347601 -498440 -369440 -437476 -512101 
930 -496427 -463398 -516419 -509101 -530381 -505224 
936 -470907 -462534 -517452 -567376 -468867 -477813 
942 -461916 -435742 -486742 -538646 -490529 -476599 
948 -553086 -497323 -488323 -522887 -397375 -400598 
954 -443520 -452824 -377493 -390176 -386549 -370775 
960 -412291 -312209 -333683 -358746 -371996 -364428 
966 -346808 -313615 -315321 -297781 -298014 -345180 
972 -323737 -252388 -225514 -271588 -284084 -177580 
978 -221717 -235746 -241466 -184724 -278612 -174961 
