##TITLE= 
##JCAMP-DX= 5.00 $$Spinapi version 20130917_x86_64
##DATA TYPE= NMR FID
##DATA CLASS= NTUPLES
##ORIGIN=
##OWNER=
##.OBSERVE FREQUENCY=21.299999
##.OBSERVE NUCLEUS=
##.DELAY= (0,0)
##.ACQUISITION MODE= SIMULTANEOUS
##.DIGITISER RES=14
##SPECTROMETER/DATA SYSTEM= SpinCore Technologies, Inc.  Radio Processor
##NTUPLES= NMR FID
##VAR_NAME=	TIME,		FID/REAL,	FID/IMAG,	PAGE NUMBER
##SYMBOL=	X,		R,		I,		N
##VAR_TYPE=	INDEPENDENT,	DEPENDENT,	DEPENDENT,	PAGE
##VAR_FORM=	AFFN,		AFFN,		AFFN,		AFFN
##VAR_DIM=	8192,		8192,		8192,		2
##UNITS=	SECONDS,	ARBITRARY UNITS,ARBITRARY UNITS,
##FIRST=	0.0,		-828472,		-1215719,		1
##LAST=	 0.081920,		-36823,		98331,		2
##MIN=     0.0,        -1094604,     -1521681,     1
##MAX=      0.081920,        1093429,     1580078,     1
##FACTOR=	1.0001E+001,		1,		1,		1
##PAGE=		N=1
##DATA TABLE=	(X++(R..R)), XYDATA $$Real data points	
0 -828472 761709 -741912 758783 -739320 761589 
6 -672263 725001 -763636 727101 -674783 617821 
12 -674855 678120 -443873 500570 -542746 608858 
18 -538477 557994 -579722 496321 -543153 362895 
24 -494480 471203 -432363 390070 -476966 390679 
30 -310600 392909 -346456 374497 -410799 372628 
36 -257303 327024 -366522 316853 -232503 152615 
42 -162169 199106 -91708 186599 -182349 130253 
48 -110510 155820 -108470 34640 -41197 60458 
54 -41177 121502 -34779 36788 23248 -98635 
60 41684 -149171 110118 -79374 188367 -95939 
66 76543 -223998 169675 -284196 206055 -171476 
72 119476 -268471 188146 -353550 290774 -166037 
78 251447 -298694 236461 -313115 385398 -380011 
84 350111 -352194 366937 -463321 490024 -414465 
90 440233 -437941 465115 -486158 564880 -507327 
96 527869 -564242 528703 -566009 601306 -450497 
102 493474 -608344 525533 -647314 583738 -603083 
108 589834 -714955 698166 -628975 662969 -489022 
114 738549 -665353 692160 -662780 776034 -717233 
120 810968 -755231 792072 -831794 754858 -703739 
126 719250 -871217 794870 -709586 760606 -832320 
132 878503 -733927 833050 -891477 917520 -920770 
138 795887 -810003 899808 -966905 839214 -878334 
144 869662 -794362 799207 -859225 838141 -917549 
150 930569 -965877 1002923 -974418 921712 -939830 
156 820145 -892485 863376 -889239 912403 -987212 
162 1036741 -1004812 999510 -929030 941202 -924188 
168 938775 -971884 992895 -1035092 1045280 -918573 
174 953321 -1014669 1003247 -912397 1013047 -977700 
180 956766 -1016100 973376 -1046813 1093429 -1094604 
186 938039 -977105 1029221 -947696 1032869 -915892 
192 1037160 -1035098 865007 -931114 956003 -933593 
198 980871 -1010079 999130 -960602 926564 -940786 
204 928874 -958982 951843 -1054856 973677 -1021861 
210 1023765 -904146 908102 -900172 832073 -948485 
216 955817 -1016054 886809 -987025 955921 -919340 
222 858425 -1024739 972393 -929168 880178 -815480 
228 962685 -836283 828122 -775877 757904 -814506 
234 843256 -873838 757259 -845646 850075 -822952 
240 767503 -763431 761954 -819800 691899 -666975 
246 722932 -793877 680201 -709839 709353 -696643 
252 721586 -710525 710990 -660894 786493 -546142 
258 654012 -659920 585037 -694861 633383 -672355 
264 680473 -678286 691191 -665528 569526 -553708 
270 558971 -506760 537667 -608655 580077 -557631 
276 599649 -573257 477191 -480287 447768 -478621 
282 492844 -475953 356526 -535168 360952 -466750 
288 467882 -297170 445267 -368071 385655 -396117 
294 306126 -349155 452677 -540125 420724 -370277 
300 374517 -225785 305865 -356485 275884 -274694 
306 267628 -367083 292490 -202871 300620 -289869 
312 249695 -264185 216573 -219515 150326 -158863 
318 186504 -104314 230073 -112157 195759 -112098 
324 160891 -282259 252890 -260902 122941 -135402 
330 147662 -90964 92645 -48160 57704 -60999 
336 -16740 59036 108480 -8927 62850 -68475 
342 92544 9623 -5766 60325 34215 56563 
348 56172 -40815 74470 -41371 -68991 31808 
354 20746 92118 -61561 111553 -81336 144324 
360 -53235 109883 -189433 78488 -258656 152373 
366 -89871 182754 -141158 177019 -115806 161784 
372 -93960 221089 -136479 111123 -163465 292008 
378 -320171 250627 -176658 95806 -197796 182969 
384 -162270 367070 -262111 231502 -224650 215975 
390 -218900 190378 -142833 202602 -270487 283443 
396 -318657 299761 -285797 213640 -315672 219349 
402 -222729 308701 -360400 248182 -244729 334317 
408 -386120 344431 -373747 315595 -494191 334668 
414 -312116 403330 -406102 402000 -310812 379926 
420 -402331 321247 -463660 383988 -406521 364064 
426 -281425 222437 -459124 364562 -360693 424076 
432 -412435 417253 -370326 326074 -413105 315663 
438 -354269 359322 -362881 241216 -286057 216519 
444 -360155 364720 -417073 445324 -442123 308493 
450 -316653 329727 -393654 501557 -580935 387021 
456 -240098 328886 -316161 469285 -442975 400262 
462 -407581 436015 -457242 410343 -291991 423059 
468 -349828 354799 -398764 323117 -369035 319313 
474 -355071 315411 -342151 433723 -341694 409504 
480 -357961 374546 -454758 448078 -356515 356093 
486 -280570 285651 -341598 247908 -395580 395821 
492 -452223 246140 -460103 357651 -361865 309155 
498 -298034 286664 -276064 368412 -396172 304174 
504 -385685 444923 -333318 336412 -395717 371335 
510 -321324 323865 -356571 386210 -384663 318556 
516 -341573 379516 -353407 368381 -339283 288462 
522 -268135 259916 -304681 246596 -245606 222647 
528 -307520 342672 -280058 334204 -275361 366045 
534 -317261 303827 -294529 258490 -238317 262555 
540 -294273 265174 -317932 288841 -246590 225874 
546 -207055 296058 -239293 272325 -258283 360794 
552 -347679 373273 -297356 220229 -185846 272015 
558 -193382 209081 -292837 260848 -253204 221890 
564 -182117 155493 -210348 134898 -272672 202762 
570 -181935 84807 -232769 186349 -263435 191118 
576 -214541 228276 -194776 291635 -212595 207645 
582 -259544 115059 -47386 117202 -125840 90728 
588 -97908 107100 -126496 151081 -146379 150565 
594 -48867 164658 -151874 45196 -117073 173723 
600 -105100 109909 -47484 90552 -21522 99615 
606 -27697 65934 -48613 112773 -56455 88544 
612 -139969 164091 -91330 75055 -109213 39059 
618 -41027 -23961 -68565 67104 -73741 73484 
624 -39719 24725 -76046 143315 -59626 -7586 
630 -112896 53716 -141115 39184 -47315 114825 
636 44787 -131406 23254 126837 30646 161719 
642 -68046 123094 -47923 7707 75257 16540 
648 -58317 -45238 24306 -96443 -69924 26593 
654 -48527 -35893 -49821 14762 3671 -65841 
660 85488 -91184 48493 -68388 -16483 -76800 
666 -43830 -74897 106628 -65478 109881 -92998 
672 27943 -40246 41358 -160200 81898 -59874 
678 128843 19567 -44443 -13186 -8861 -55695 
684 74385 -67211 -5345 -84784 -28742 -84994 
690 -17265 18508 -37877 -96058 82905 -66749 
696 166562 -73124 102129 -156202 53337 -10422 
702 55826 -108376 49457 -110906 13347 -15385 
708 46032 -125013 172514 -74508 99015 -28790 
714 105521 37308 35594 39642 52068 -74265 
720 141274 -131446 106334 -131338 44075 -95659 
726 188039 -38449 51446 -18656 165139 -109266 
732 149774 -122214 -37515 -71600 70434 -63821 
738 75308 -230969 157623 -182732 98454 -116199 
744 75680 -40097 195326 -23397 4178 -80773 
750 144628 -45732 107674 -40816 62406 -155575 
756 57787 -107011 24717 -81647 85930 -145419 
762 51310 -202045 134459 -143159 136791 -97841 
768 213657 -95946 741 -35960 -31388 -10144 
774 105299 -75860 168142 -5667 40992 -92015 
780 50584 -49170 -24451 -141693 -14165 -32455 
786 148760 -89691 130739 -108185 118229 -100821 
792 84107 18041 -30734 -32629 36683 -129469 
798 122555 -86973 134563 8076 70189 -60439 
804 91688 -59321 1188 -94053 25058 -80141 
810 91852 22858 17072 -76180 34479 -18048 
816 116715 -44155 65065 -42494 107172 -106595 
822 10658 34565 61044 -131808 40209 -22008 
828 -67085 -71887 16447 -44380 -8797 -71916 
834 106316 -43970 64825 -105056 51652 -17373 
840 33032 15180 96470 -76076 59763 -48423 
846 -7585 -13609 44319 48213 -3780 -16772 
852 41040 20191 5300 -5515 51157 -50271 
858 -89160 -17708 21508 60498 -175771 -32047 
864 13576 19194 42909 -84995 6237 10400 
870 9682 104234 -29157 62533 -19472 -124964 
876 -13420 -21405 79870 -30261 40374 138565 
882 32860 -18684 -76194 -52502 90483 10223 
888 59472 7459 -6651 22862 -62187 -123793 
894 -27851 6640 41584 1417 -39179 51626 
900 -107993 -51142 121109 -42753 31285 -12686 
906 14279 77530 -125378 12615 65543 9486 
912 -5870 6200 -20371 49812 -19462 59824 
918 -1229 46138 -78037 9536 -158561 -5780 
924 17865 82384 -97292 85407 59525 -22012 
930 51897 -23125 -89057 176624 -89797 31740 
936 34613 -27014 -99813 83366 -15576 -36615 
942 106741 -21857 -130360 -53916 -11060 22645 
948 -85248 -33423 -68308 63900 -195649 101227 
954 -15315 23361 -28506 14422 -73350 38584 
960 -29975 87524 -33329 16407 55203 54409 
966 -11695 3926 -122838 17115 11240 23535 
972 56281 -3005 -130794 84517 -72738 19723 
978 -61107 -20918 14579 -47027 -48505 -41565 
984 3951 51106 -103142 -6829 -2867 -72919 
990 8448 -35256 3051 3244 38504 -29325 
996 85970 104316 -27784 -16866 59272 85172 
1002 -110531 119640 6625 -6539 5102 25894 
1008 70539 -36940 -69080 66279 10373 54252 
1014 -7768 48342 -35182 177401 1647 -19851 
1020 6946 48830 3239 -57370 39946 -30840 
1026 22749 -70643 14227 -5508 38257 110909 
1032 -10385 40264 65642 9874 16682 92985 
1038 -59780 64806 -36118 66844 -95046 22377 
1044 -93939 -39551 61242 -23678 29853 5442 
1050 -53032 -69727 -31931 -129827 44908 -115953 
1056 16090 53904 -35373 105278 -47900 58076 
1062 -25872 -168743 96260 13202 41276 -62317 
1068 56251 732 -87475 97 40551 48611 
1074 -34190 11218 24414 -67739 -46387 -84336 
1080 21736 70938 -3601 -34370 16582 27081 
1086 -45509 -110414 103678 -53350 2652 -69978 
1092 46029 -17125 -367 900 25100 29866 
1098 -59551 80077 82249 -140219 33501 -50478 
1104 85533 -39809 42366 7285 32145 -88283 
1110 61566 -152735 43665 -99807 -22503 -37884 
1116 140851 -97998 15553 15073 78510 -57175 
1122 78571 -116222 84541 -40370 -22900 -56642 
